z
0.9002987864021155
0.4338021091778136
0.37549002452477587
0.49627564103813826
0.32717059554432887
0.8461481489563647
0.26594290665863923
0.9073758378420543
0.5021068495034421
0.2617814594513523
0.9002987864021155
1.1918592096673042
0.8419867017490777
0.4921141938308513
1.3697110678590692
1.0723194361285768
0.7865902213286918
0.6699660520226164
1.1306315207816144
1.2501712943203418
0.7865902213286918
0.8419867017490777
1.0752350403612287
0.9032143906347674
0.7253625324430023
0.8419867017490777
0.9002987864021155
0.8419867017490777
0.20763082200560148
0.8490637531890166
0.550426278483889
0.6699660520226164
0.08392960125958718
1.1306315207816144
0.6087383631369268
1.3113989832060315
1.0752350403612287
0.6699660520226164
0.7807590128633881
1.1364627292469183
0.9586108710551532
0.6087383631369268
0.9615264752878051
1.1918592096673042
0.7253625324430023
0.7253625324430023
1.016922955708191
1.016922955708191
0.7865902213286918
0.4308865049451617
0.7865902213286918
0.8419867017490777
0.6699660520226164
0.605822758904275
1.016922955708191
1.0752350403612287
0.7282781366756541
0.6670504477899645
1.3084833789733796
1.016922955708191
0.553341882716541
0.78367461709604
1.0781506445938804
0.9556952668225013
0.6116539673695787
0.8419867017490777
1.1918592096673042
0.8419867017490777
0.9002987864021155
0.9586108710551532
0.7865902213286918
0.5475106742512371
0.7865902213286918
0.9002987864021155
0.78367461709604
0.550426278483889
0.8449023059817296
1.2472556900876899
0.8449023059817296
0.4338021091778136
0.553341882716541
1.016922955708191
0.6670504477899645
0.14931873735256376
1.3113989832060315
0.13932608167997304
0.6712118949972514
0.32425499131167695
0.965687922495092
1.1377085722215534
0.2688585108912911
0.8490637531890166
0.2047152177729496
0.8419867017490777
0.8419867017490777
0.37549002452477587
0.6087383631369268
1.3697110678590692
0.6670504477899645
0.550426278483889
0.3825670759647147
0.9073758378420543
0.9615264752878051
0.4921141938308513
0.6116539673695787
0.7253625324430023
0.9586108710551532
0.6670504477899645
0.550426278483889
0.7865902213286918
0.8973831821694636
0.6087383631369268
0.553341882716541
1.1364627292469183
0.9586108710551532
0.6670504477899645
0.9586108710551532
1.1364627292469183
0.9002987864021155
0.78367461709604
0.8449023059817296
0.8419867017490777
0.6087383631369268
0.9032143906347674
1.3055677747407277
1.0198385599408428
0.9586108710551532
1.2501712943203418
1.0198385599408428
0.7253625324430023
1.016922955708191
1.2530868985529937
1.1335471250142664
0.9032143906347674
1.0752350403612287
1.016922955708191
0.7865902213286918
1.0752350403612287
1.1335471250142664
0.8419867017490777
0.7865902213286918
1.016922955708191
0.78367461709604
0.550426278483889
1.0198385599408428
1.425107548279455
1.0781506445938804
0.7253625324430023
0.9586108710551532
0.7253625324430023
0.43671771341046545
0.78367461709604
1.2472556900876899
0.9032143906347674
0.9032143906347674
1.2501712943203418
0.7253625324430023
0.4921141938308513
0.9586108710551532
1.194774813899956
0.7253625324430023
0.20055377056566265
2.302704422307673
0.9002987864021155
0.4950297980635032
0.7253625324430023
1.0752350403612287
0.6087383631369268
0.37549002452477587
0.3171779398717381
0.4991912452707902
1.0240000071481297
0.32009354410439
0.9586108710551532
0.6699660520226164
1.1918592096673042
0.25886585521870037
0.6128998103442137
1.0723194361285768
0.9032143906347674
1.4834196329324927
4.518563639123107
4.107463442319191
3.9966704814784193
1.655440282658954
0.37549002452477587
1.7778956604303333
1.1335471250142664
1.5446473218181824
1.4834196329324927
0.20055377056566265
1.8362077450833711
1.4834196329324927
0.9586108710551532
1.1364627292469183
1.3113989832060315
1.1918592096673042
0.08684520549223906
1.3055677747407277
0.9032143906347674
1.016922955708191
3.582654680441851
1.3697110678590692
1.194774813899956
0.09100665269952601
0.6741274992299033
1.6000438022385683
1.1918592096673042
0.6699660520226164
0.08392960125958718
0.6712118949972514
4.046235753433502
2.1860802530015975
0.6087383631369268
0.6699660520226164
0.14224168591262493
1.8362077450833711
1.6000438022385683
0.20055377056566265
1.658355886891606
1.3113989832060315
1.016922955708191
0.78367461709604
1.8945198297364088
0.7253625324430023
0.14931873735256376
0.20346937479831453
1.3667954636264172
1.5417317175855305
0.7253625324430023
0.14640313311991188
0.8519793574216684
1.1364627292469183
1.2501712943203418
0.032694568046488286
0.7907516685359788
1.7778956604303333
0.9002987864021155
0.20763082200560148
0.8490637531890166
0.6699660520226164
1.1306315207816144
0.0297789638138364
0.7907516685359788
0.09100665269952601
0.8490637531890166
1.1406241764542053
0.43671771341046545
0.21054642623825337
0.6712118949972514
1.1306315207816144
1.0198385599408428
1.60295940647122
1.1335471250142664
0.6116539673695787
0.26594290665863923
0.02270191237389756
1.7778956604303333
1.4834196329324927
0.08684520549223906
1.3638798593937653
0.9073758378420543
0.9002987864021155
0.6087383631369268
0.550426278483889
0.6087383631369268
0.3784056287574277
0.31426233563908623
0.43671771341046545
0.3171779398717381
0.08809104846687413
0.6641348435573127
0.6699660520226164
0.6699660520226164
0.37549002452477587
0.37257442029212395
0.8449023059817296
0.9586108710551532
0.6087383631369268
0.7282781366756541
0.78367461709604
0.6087383631369268
0.3784056287574277
0.5021068495034421
0.8490637531890166
0.7865902213286918
0.6670504477899645
0.4338021091778136
0.9002987864021155
0.9002987864021155
0.8419867017490777
0.7282781366756541
0.78367461709604
1.2530868985529937
1.1918592096673042
0.9002987864021155
0.9615264752878051
1.7166679715446438
0.08392960125958718
0.3825670759647147
0.9686035267277439
0.08684520549223906
0.6741274992299033
0.4408791606177524
0.8461481489563647
0.4991912452707902
0.7907516685359788
0.4991912452707902
1.0240000071481297
0.20055377056566265
0.6712118949972514
0.20055377056566265
0.14931873735256376
0.9073758378420543
0.43671771341046545
0.13932608167997304
0.7324395838829411
0.9586108710551532
0.43671771341046545
0.5575033299238279
0.43796355638510054
1.2472556900876899
1.0781506445938804
0.6087383631369268
0.7865902213286918
0.26594290665863923
0.09100665269952601
0.7907516685359788
0.965687922495092
0.028533120839201332
0.7907516685359788
0.32717059554432887
0.8490637531890166
0.14640313311991188
0.7907516685359788
0.13932608167997304
0.2047152177729496
0.7907516685359788
0.9686035267277439
0.14931873735256376
0.8461481489563647
0.08392960125958718
0.6741274992299033
0.09100665269952601
0.8490637531890166
0.032694568046488286
0.7907516685359788
0.554587725691176
1.0852276960338194
0.20763082200560148
0.8490637531890166
0.08809104846687413
0.8519793574216684
0.26594290665863923
0.8461481489563647
0.3854826801973666
0.9044602336094024
0.32425499131167695
0.9073758378420543
0.4338021091778136
0.4991912452707902
0.3825670759647147
0.8519793574216684
0.2047152177729496
1.0198385599408428
1.3055677747407277
0.7865902213286918
0.4921141938308513
0.8419867017490777
1.0198385599408428
0.8973831821694636
0.4921141938308513
0.9032143906347674
0.9002987864021155
0.6670504477899645
0.4921141938308513
1.1918592096673042
1.3697110678590692
0.9002987864021155
0.6087383631369268
0.7253625324430023
0.78367461709604
0.6699660520226164
0.3171779398717381
1.016922955708191
1.1918592096673042
0.9002987864021155
0.78367461709604
0.9002987864021155
0.9032143906347674
0.605822758904275
0.8449023059817296
1.3084833789733796
0.9032143906347674
0.6087383631369268
0.5475106742512371
1.1364627292469183
0.14224168591262493
0.6741274992299033
0.7324395838829411
4.285315300510956
1.7749800561976814
1.8332921408507192
1.1364627292469183
1.1918592096673042
0.8449023059817296
1.2472556900876899
1.5446473218181824
0.9002987864021155
0.8419867017490777
1.3697110678590692
1.4221919440468032
0.9586108710551532
0.028533120839201332
0.6741274992299033
1.4221919440468032
1.0781506445938804
1.0752350403612287
1.2530868985529937
1.1889436054346523
0.08809104846687413
0.7907516685359788
4.052066961898805
2.241476733421983
0.6087383631369268
0.3171779398717381
1.2501712943203418
1.1364627292469183
0.6087383631369268
0.78367461709604
0.0297789638138364
0.7907516685359788
1.1406241764542053
1.143539780686857
0.4991912452707902
1.0793964875685156
0.08392960125958718
0.6741274992299033
0.14931873735256376
0.8490637531890166
0.032694568046488286
0.1451572901452768
0.6770431034625553
0.1451572901452768
1.3084833789733796
1.1335471250142664
1.0781506445938804
0.3171779398717381
1.5446473218181824
0.25886585521870037
2.1277681683485596
0.550426278483889
1.3113989832060315
0.025617516606549446
0.7324395838829411
1.3113989832060315
1.3084833789733796
0.9002987864021155
1.7778956604303333
0.8419867017490777
1.5446473218181824
0.20055377056566265
0.26594290665863923
2.1802490445362936
0.6145695716022306
0.9586108710551532
0.21054642623825337
0.8461481489563647
1.016922955708191
1.7166679715446438
1.1364627292469183
0.6670504477899645
0.6116539673695787
2.53012155245452
0.7282781366756541
0.550426278483889
0.9032143906347674
1.3055677747407277
0.08684520549223906
0.5575033299238279
0.550426278483889
1.8362077450833711
1.3667954636264172
0.08392960125958718
2.1277681683485596
1.7195835757772957
0.2559502509860485
1.3113989832060315
0.9002987864021155
0.4950297980635032
0.5021068495034421
1.0240000071481297
0.26594290665863923
0.9073758378420543
1.194774813899956
0.4921141938308513
0.49627564103813826
0.19763816633301076
0.6741274992299033
3.5272582000214654
1.428023152512107
1.6000438022385683
1.3667954636264172
0.1451572901452768
0.6770431034625553
0.553341882716541
1.658355886891606
1.3667954636264172
0.08684520549223906
0.735355188115593
0.32009354410439
0.14931873735256376
0.6741274992299033
1.198936261107243
0.6087383631369268
0.9032143906347674
1.8362077450833711
1.888688621271105
1.0781506445938804
1.3084833789733796
4.343627385163994
1.8332921408507192
4.638103412661835
2.06654047946287
4.282399696278304
2.535952760919824
1.6000438022385683
1.7749800561976814
0.3171779398717381
0.6128998103442137
0.08392960125958718
0.7324395838829411
0.26594290665863923
0.9073758378420543
1.198936261107243
0.965687922495092
1.198936261107243
0.7324395838829411
1.198936261107243
0.08392960125958718
0.7324395838829411
0.5575033299238279
1.1406241764542053
1.0240000071481297
1.196020656874591
1.1406241764542053
1.198936261107243
0.20763082200560148
0.9073758378420543
0.49627564103813826
1.0240000071481297
0.08392960125958718
0.6741274992299033
0.7324395838829411
1.0823120918011675
0.4991912452707902
0.965687922495092
0.4408791606177524
0.9627723182624401
0.13932608167997304
0.6116539673695787
0.550426278483889
0.7865902213286918
0.9002987864021155
1.6000438022385683
0.9586108710551532
0.14931873735256376
0.8490637531890166
0.7907516685359788
0.6741274992299033
1.1406241764542053
0.7253625324430023
0.025617516606549446
0.14640313311991188
0.7907516685359788
2.124852564115908
1.0752350403612287
0.08809104846687413
0.14931873735256376
0.8490637531890166
0.6087383631369268
1.0752350403612287
1.7166679715446438
1.1364627292469183
0.14224168591262493
0.6741274992299033
0.553341882716541
0.02270191237389756
0.7295239796502893
1.2018518653398949
3.8800463121723436
1.5388161133528786
1.0198385599408428
0.14931873735256376
0.8461481489563647
0.08101399702693529
0.7295239796502893
1.6000438022385683
0.9032143906347674
0.26594290665863923
0.550426278483889
0.9032143906347674
0.14931873735256376
0.8490637531890166
0.6087383631369268
0.26594290665863923
0.787836064303327
1.0240000071481297
0.08392960125958718
0.735355188115593
0.6128998103442137
1.0823120918011675
0.14931873735256376
0.8490637531890166
0.09100665269952601
0.028533120839201332
0.7907516685359788
0.37549002452477587
0.032694568046488286
0.9032143906347674
0.21054642623825337
0.14640313311991188
0.8490637531890166
0.4408791606177524
1.021084402915478
0.9073758378420543
0.26594290665863923
0.08392960125958718
4.926748231694371
2.302704422307673
0.13932608167997304
0.3796514717320628
1.1918592096673042
0.7282781366756541
0.32425499131167695
1.658355886891606
0.20346937479831453
4.049151357666153
1.658355886891606
0.032694568046488286
0.14931873735256376
0.7907516685359788
0.3171779398717381
0.14640313311991188
0.8519793574216684
0.08809104846687413
0.8519793574216684
0.7324395838829411
1.0240000071481297
1.0793964875685156
1.1406241764542053
1.143539780686857
0.0297789638138364
0.3171779398717381
0.7253625324430023
0.08809104846687413
0.7907516685359788
0.4921141938308513
0.43796355638510054
1.0240000071481297
0.4921141938308513
0.09100665269952601
0.8490637531890166
0.6087383631369268
0.32425499131167695
0.965687922495092
0.550426278483889
1.0198385599408428
1.016922955708191
0.8419867017490777
1.194774813899956
1.2501712943203418
0.9032143906347674
0.78367461709604
1.016922955708191
1.0752350403612287
0.8449023059817296
0.26594290665863923
0.4991912452707902
1.016922955708191
0.9002987864021155
0.6116539673695787
0.25886585521870037
1.6612714911242579
0.9586108710551532
0.7253625324430023
0.20763082200560148
0.32425499131167695
0.9586108710551532
0.14931873735256376
0.14931873735256376
0.6116539673695787
1.7749800561976814
1.016922955708191
0.43671771341046545
2.299788818075021
0.6087383631369268
0.8449023059817296
1.5417317175855305
0.9615264752878051
0.9586108710551532
1.428023152512107
0.2559502509860485
0.6712118949972514
4.285315300510956
2.8829096646053984
0.9586108710551532
3.5272582000214654
1.5417317175855305
0.20055377056566265
1.6612714911242579
0.3171779398717381
0.4991912452707902
1.0240000071481297
0.7907516685359788
1.1406241764542053
0.8461481489563647
1.2018518653398949
1.1406241764542053
1.1377085722215534
0.37549002452477587
0.9002987864021155
1.4863352371651446
1.2501712943203418
0.9586108710551532
1.0781506445938804
1.3667954636264172
1.1364627292469183
0.6087383631369268
0.4437947648504043
0.6128998103442137
0.7807590128633881
0.6699660520226164
0.32425499131167695
0.7324395838829411
1.198936261107243
0.554587725691176
0.3825670759647147
0.735355188115593
0.8461481489563647
0.7907516685359788
1.1406241764542053
1.9528319143894466
0.4308865049451617
0.49627564103813826
0.025617516606549446
0.78367461709604
0.20763082200560148
1.6612714911242579
1.194774813899956
1.3667954636264172
0.08392960125958718
0.5575033299238279
1.194774813899956
0.9586108710551532
0.09100665269952601
0.4991912452707902
1.0823120918011675
0.4338021091778136
0.3825670759647147
0.32133938707902504
0.9073758378420543
0.032694568046488286
0.735355188115593
0.6128998103442137
0.9073758378420543
0.3825670759647147
0.9002987864021155
0.14931873735256376
0.9073758378420543
0.9073758378420543
1.1377085722215534
0.965687922495092
1.1406241764542053
0.9073758378420543
1.0823120918011675
0.965687922495092
1.1406241764542053
1.0793964875685156
1.0823120918011675
1.1406241764542053
1.1406241764542053
0.8419867017490777
0.26594290665863923
0.2047152177729496
0.8519793574216684
0.4921141938308513
0.43796355638510054
0.3825670759647147
1.0240000071481297
0.1451572901452768
0.735355188115593
0.2617814594513523
0.5604189341564798
0.14348752888726
0.7936672727686307
0.14640313311991188
0.8519793574216684
0.20346937479831453
1.2501712943203418
0.1451572901452768
0.6741274992299033
1.016922955708191
0.14931873735256376
0.6187310188095175
1.1377085722215534
0.20055377056566265
0.6741274992299033
0.7324395838829411
1.1406241764542053
1.0240000071481297
1.1406241764542053
1.196020656874591
0.032694568046488286
0.7907516685359788
0.965687922495092
1.1406241764542053
1.1406241764542053
0.6741274992299033
1.0240000071481297
1.198936261107243
1.0240000071481297
1.1406241764542053
1.0793964875685156
1.1406241764542053
1.198936261107243
0.7324395838829411
0.9073758378420543
1.1406241764542053
1.1406241764542053
0.9032143906347674
0.26594290665863923
0.09392225693217791
0.7907516685359788
0.08684520549223906
0.6158154145768656
0.965687922495092
1.1406241764542053
0.032694568046488286
0.7907516685359788
1.1406241764542053
0.6116539673695787
0.26594290665863923
0.965687922495092
0.3784056287574277
0.4991912452707902
0.37549002452477587
0.5021068495034421
0.0297789638138364
0.7324395838829411
0.965687922495092
1.0823120918011675
1.196020656874591
1.0852276960338194
1.0240000071481297
1.1406241764542053
1.196020656874591
1.1406241764542053
0.9586108710551532
0.14931873735256376
0.6741274992299033
1.1406241764542053
0.7907516685359788
1.196020656874591
1.1406241764542053
0.9686035267277439
0.9627723182624401
1.0823120918011675
1.0823120918011675
0.3825670759647147
1.0240000071481297
0.8490637531890166
1.1377085722215534
1.198936261107243
1.0852276960338194
1.196020656874591
1.3667954636264172
0.028533120839201332
0.6741274992299033
1.1406241764542053
0.9686035267277439
1.1406241764542053
1.1406241764542053
1.1377085722215534
1.1406241764542053
1.1406241764542053
1.1406241764542053
1.1406241764542053
1.196020656874591
1.143539780686857
1.0823120918011675
1.1406241764542053
1.0823120918011675
1.0793964875685156
1.1406241764542053
1.1406241764542053
1.0240000071481297
1.1406241764542053
1.1406241764542053
1.1406241764542053
1.0752350403612287
0.14931873735256376
0.7907516685359788
0.43796355638510054
0.965687922495092
1.1406241764542053
1.1406241764542053
1.016922955708191
0.2047152177729496
0.4991912452707902
1.0240000071481297
1.198936261107243
1.1406241764542053
1.196020656874591
1.0269156113807816
0.14224168591262493
0.6712118949972514
0.32425499131167695
0.9073758378420543
1.1406241764542053
1.1406241764542053
1.1406241764542053
1.1406241764542053
1.1406241764542053
1.198936261107243
1.60295940647122
0.20055377056566265
0.4408791606177524
0.9073758378420543
0.8490637531890166
1.1406241764542053
1.1406241764542053
1.198936261107243
0.3825670759647147
0.9627723182624401
1.2018518653398949
0.9032143906347674
0.2047152177729496
0.26594290665863923
0.8519793574216684
0.20346937479831453
0.6158154145768656
0.032694568046488286
0.7907516685359788
1.0823120918011675
1.1406241764542053
1.1406241764542053
0.9627723182624401
1.1406241764542053
1.1406241764542053
1.198936261107243
1.0240000071481297
1.0823120918011675
1.1406241764542053
1.198936261107243
1.1406241764542053
1.0793964875685156
1.143539780686857
1.1406241764542053
1.1406241764542053
1.196020656874591
1.0852276960338194
1.0240000071481297
1.1377085722215534
1.3667954636264172
0.08684520549223906
0.6741274992299033
1.4221919440468032
0.1451572901452768
0.554587725691176
1.0852276960338194
0.9073758378420543
1.1406241764542053
1.1406241764542053
1.021084402915478
1.0240000071481297
1.198936261107243
1.0823120918011675
1.0823120918011675
1.1377085722215534
1.2018518653398949
1.0793964875685156
1.0852276960338194
1.1406241764542053
1.1377085722215534
1.1406241764542053
0.4437947648504043
1.0793964875685156
1.1406241764542053
0.6087383631369268
0.2630273024259873
0.3825670759647147
0.9686035267277439
0.7907516685359788
1.0793964875685156
1.0852276960338194
0.32009354410439
0.4991912452707902
0.20763082200560148
0.8461481489563647
0.31426233563908623
0.554587725691176
0.7907516685359788
1.0823120918011675
0.8490637531890166
0.7907516685359788
1.0823120918011675
0.6712118949972514
1.2018518653398949
1.1377085722215534
1.1406241764542053
1.2018518653398949
1.1406241764542053
1.1377085722215534
1.198936261107243
1.1406241764542053
1.1377085722215534
1.1406241764542053
1.1406241764542053
1.0852276960338194
1.0240000071481297
1.1406241764542053
1.1377085722215534
1.1406241764542053
1.1406241764542053
1.2018518653398949
1.021084402915478
1.1406241764542053
0.965687922495092
1.0823120918011675
1.198936261107243
1.1377085722215534
0.735355188115593
1.1406241764542053
1.1406241764542053
1.0793964875685156
1.2018518653398949
1.1377085722215534
1.1406241764542053
1.1406241764542053
1.1406241764542053
1.1406241764542053
1.1406241764542053
1.0823120918011675
1.198936261107243
1.1377085722215534
2.4164129873810967
0.6670504477899645
0.8419867017490777
1.8362077450833711
0.37549002452477587
0.5575033299238279
1.0852276960338194
1.1377085722215534
1.1406241764542053
1.1406241764542053
1.1406241764542053
1.1406241764542053
0.9073758378420543
0.14640313311991188
0.8490637531890166
0.4408791606177524
0.14640313311991188
0.7907516685359788
0.32717059554432887
0.9627723182624401
0.4408791606177524
1.0240000071481297
0.20346937479831453
0.14931873735256376
0.8519793574216684
1.0793964875685156
1.0240000071481297
1.1406241764542053
1.198936261107243
1.1406241764542053
1.198936261107243
1.1377085722215534
1.1406241764542053
1.0852276960338194
1.198936261107243
1.1406241764542053
1.196020656874591
1.1406241764542053
1.2018518653398949
1.0793964875685156
0.6187310188095175
0.9627723182624401
0.3825670759647147
0.965687922495092
0.14640313311991188
0.7907516685359788
0.14931873735256376
0.7907516685359788
0.5604189341564798
0.9627723182624401
0.32425499131167695
0.9073758378420543
0.2630273024259873
0.9073758378420543
0.26594290665863923
0.9073758378420543
0.26594290665863923
0.9073758378420543
0.028533120839201332
0.735355188115593
0.20346937479831453
0.6187310188095175
0.26594290665863923
0.9044602336094024
3.6438823693275406
1.425107548279455
0.4921141938308513
0.4991912452707902
0.9627723182624401
1.1406241764542053
1.4834196329324927
0.14224168591262493
0.6670504477899645
0.7865902213286918
0.14931873735256376
0.8519793574216684
0.7865902213286918
0.20055377056566265
1.7195835757772957
0.6670504477899645
0.9586108710551532
0.14640313311991188
0.6187310188095175
0.6699660520226164
0.37549002452477587
0.5575033299238279
0.025617516606549446
0.7324395838829411
0.965687922495092
1.198936261107243
1.1406241764542053
0.43796355638510054
0.8973831821694636
1.0781506445938804
0.09100665269952601
0.14931873735256376
0.20763082200560148
1.0198385599408428
0.032694568046488286
0.6770431034625553
0.554587725691176
1.1406241764542053
0.3784056287574277
0.5021068495034421
1.5417317175855305
0.3171779398717381
0.5575033299238279
0.6158154145768656
1.1377085722215534
1.0823120918011675
1.198936261107243
0.9073758378420543
1.198936261107243
0.965687922495092
1.0793964875685156
1.2018518653398949
1.1406241764542053
0.32425499131167695
0.9073758378420543
0.14224168591262493
0.554587725691176
2.8245975799523606
0.9615264752878051
0.9627723182624401
1.143539780686857
0.6158154145768656
1.0793964875685156
1.1918592096673042
0.032694568046488286
0.7324395838829411
0.6699660520226164
0.25886585521870037
0.32425499131167695
0.26594290665863923
0.8461481489563647
1.1406241764542053
1.1406241764542053
1.2018518653398949
0.553341882716541
0.4408791606177524
0.2047152177729496
0.9073758378420543
1.0240000071481297
0.9686035267277439
0.8461481489563647
1.2018518653398949
0.6712118949972514
1.0823120918011675
0.4921141938308513
0.4991912452707902
0.7295239796502893
1.2018518653398949
1.1406241764542053
3.466030511135776
1.3113989832060315
0.5604189341564798
1.1406241764542053
0.032694568046488286
0.7907516685359788
0.6128998103442137
1.1406241764542053
0.14931873735256376
0.8490637531890166
0.20055377056566265
0.6712118949972514
0.2688585108912911
0.9615264752878051
1.1918592096673042
0.028533120839201332
0.7324395838829411
1.0240000071481297
0.7324395838829411
1.1406241764542053
3.5243425957888133
1.3697110678590692
0.37549002452477587
0.4991912452707902
0.5575033299238279
0.3784056287574277
0.032694568046488286
0.735355188115593
0.6087383631369268
0.3796514717320628
1.0240000071481297
0.965687922495092
0.6670504477899645
0.0297789638138364
0.7907516685359788
1.1406241764542053
1.2018518653398949
1.1377085722215534
1.1406241764542053
0.9686035267277439
1.1406241764542053
0.8461481489563647
0.6158154145768656
0.32425499131167695
0.965687922495092
1.198936261107243
1.0781506445938804
0.7253625324430023
0.8973831821694636
0.2617814594513523
0.6158154145768656
0.20055377056566265
0.6712118949972514
0.21054642623825337
0.8461481489563647
0.09392225693217791
0.7907516685359788
0.554587725691176
1.0240000071481297
0.5575033299238279
0.9627723182624401
0.32717059554432887
0.9627723182624401
0.8519793574216684
1.1406241764542053
0.6741274992299033
0.8461481489563647
1.0823120918011675
1.198936261107243
1.1406241764542053
0.9627723182624401
1.1406241764542053
0.5021068495034421
1.0240000071481297
0.3825670759647147
0.787836064303327
0.6741274992299033
0.965687922495092
0.965687922495092
0.6699660520226164
0.8419867017490777
0.550426278483889
0.09100665269952601
1.3113989832060315
0.6670504477899645
0.032694568046488286
1.8362077450833711
0.31426233563908623
4.110379046551842
2.1277681683485596
0.7253625324430023
0.2617814594513523
0.6187310188095175
0.26594290665863923
0.08392960125958718
0.7295239796502893
0.9002987864021155
0.26594290665863923
0.8490637531890166
0.6087383631369268
0.32133938707902504
0.7936672727686307
0.9627723182624401
0.032694568046488286
0.7907516685359788
1.0823120918011675
1.198936261107243
0.4338021091778136
0.4991912452707902
0.2617814594513523
0.6158154145768656
0.14931873735256376
0.7907516685359788
0.14224168591262493
0.6741274992299033
0.2617814594513523
0.5604189341564798
0.32133938707902504
0.9627723182624401
0.26594290665863923
0.9073758378420543
0.13932608167997304
0.6128998103442137
0.3171779398717381
0.5575033299238279
0.32425499131167695
0.9073758378420543
0.32009354410439
0.4991912452707902
0.028533120839201332
0.735355188115593
0.8490637531890166
1.1377085722215534
0.26594290665863923
0.7324395838829411
2.7079734106462854
1.0240000071481297
0.14224168591262493
0.3784056287574277
0.31426233563908623
0.3796514717320628
0.965687922495092
0.14931873735256376
0.7324395838829411
1.0793964875685156
0.14224168591262493
0.6158154145768656
1.0752350403612287
0.3784056287574277
0.4991912452707902
0.965687922495092
1.4834196329324927
0.6699660520226164
0.20055377056566265
0.08809104846687413
1.016922955708191
0.0297789638138364
0.37549002452477587
0.5575033299238279
1.0852276960338194
0.7907516685359788
1.1406241764542053
3.2386133809889284
1.1335471250142664
3.7021944539805784
1.4834196329324927
5.396160513151325
2.474725072034134
0.6741274992299033
0.025617516606549446
0.7907516685359788
0.4338021091778136
1.7749800561976814
0.38132123299007964
0.21054642623825337
0.9073758378420543
2.247307941887287
0.78367461709604
0.20763082200560148
0.554587725691176
1.0852276960338194
0.3825670759647147
0.9073758378420543
0.032694568046488286
0.7907516685359788
0.2630273024259873
0.8490637531890166
0.3825670759647147
0.965687922495092
0.4991912452707902
1.0240000071481297
0.1451572901452768
0.6770431034625553
0.032694568046488286
0.7295239796502893
0.20763082200560148
0.7295239796502893
1.0269156113807816
1.1406241764542053
0.9615264752878051
0.14931873735256376
0.7295239796502893
0.9686035267277439
0.9073758378420543
1.1406241764542053
1.1406241764542053
1.0240000071481297
0.9627723182624401
1.2018518653398949
1.3113989832060315
0.14224168591262493
0.6116539673695787
0.37549002452477587
0.8973831821694636
0.9032143906347674
0.9586108710551532
1.0752350403612287
0.14224168591262493
0.6699660520226164
1.1889436054346523
0.7865902213286918
0.6087383631369268
0.8419867017490777
0.7253625324430023
0.6116539673695787
0.6641348435573127
0.7865902213286918
0.4338021091778136
0.5475106742512371
0.43671771341046545
0.4338021091778136
0.3171779398717381
0.43671771341046545
0.7253625324430023
0.37257442029212395
0.9615264752878051
0.9586108710551532
0.6087383631369268
0.550426278483889
0.9586108710551532
0.78367461709604
0.4338021091778136
0.6699660520226164
0.7253625324430023
0.4338021091778136
0.4921141938308513
0.8419867017490777
0.9032143906347674
0.6641348435573127
0.8419867017490777
1.0781506445938804
0.9002987864021155
0.9002987864021155
1.0752350403612287
1.428023152512107
1.016922955708191
0.4921141938308513
0.2630273024259873
0.4437947648504043
1.2530868985529937
0.9002987864021155
0.09100665269952601
0.8490637531890166
0.4338021091778136
0.3171779398717381
0.553341882716541
0.6087383631369268
0.7253625324430023
0.4338021091778136
0.37549002452477587
0.8973831821694636
0.7865902213286918
0.4921141938308513
0.14931873735256376
0.7324395838829411
1.194774813899956
0.9586108710551532
0.6087383631369268
0.8419867017490777
1.016922955708191
0.78367461709604
0.9002987864021155
0.9586108710551532
0.7865902213286918
0.6087383631369268
0.8419867017490777
1.7166679715446438
1.0752350403612287
0.08809104846687413
0.4408791606177524
1.016922955708191
1.0198385599408428
0.6641348435573127
0.6087383631369268
0.9615264752878051
0.9002987864021155
0.0297789638138364
2.0053127905771806
1.3113989832060315
0.028533120839201332
1.4221919440468032
0.9615264752878051
0.8449023059817296
0.4921141938308513
0.6087383631369268
1.1918592096673042
0.25886585521870037
0.32133938707902504
0.37257442029212395
1.7195835757772957
1.2530868985529937
0.8419867017490777
1.3667954636264172
3.177385692103239
4.63227220419653
0.43671771341046545
0.6641348435573127
1.2530868985529937
0.78367461709604
0.6670504477899645
0.20763082200560148
0.20763082200560148
0.9073758378420543
0.032694568046488286
0.7324395838829411
0.4950297980635032
1.8332921408507192
1.016922955708191
0.8449023059817296
0.26594290665863923
0.9073758378420543
1.1364627292469183
0.7807590128633881
2.0111439990424844
0.4921141938308513
2.6525769302258992
0.9002987864021155
0.554587725691176
1.1406241764542053
1.1377085722215534
0.9044602336094024
0.032694568046488286
0.4408791606177524
0.2047152177729496
0.8519793574216684
0.8490637531890166
1.1377085722215534
0.14931873735256376
0.8490637531890166
0.7907516685359788
1.0823120918011675
0.3825670759647147
0.20346937479831453
0.6741274992299033
0.08392960125958718
0.6770431034625553
0.787836064303327
0.965687922495092
0.2047152177729496
0.8519793574216684
3.2940098614093145
1.8362077450833711
0.37549002452477587
1.1406241764542053
0.4408791606177524
0.7907516685359788
0.025617516606549446
0.6741274992299033
0.554587725691176
1.0823120918011675
0.4991912452707902
1.0793964875685156
1.0852276960338194
1.0240000071481297
1.0823120918011675
1.1406241764542053
0.14224168591262493
0.6712118949972514
0.14931873735256376
0.7907516685359788
0.032694568046488286
0.32425499131167695
0.787836064303327
1.0852276960338194
1.1377085722215534
1.2018518653398949
0.20763082200560148
0.9044602336094024
0.735355188115593
1.196020656874591
1.0823120918011675
1.0823120918011675
1.198936261107243
1.1406241764542053
0.37549002452477587
0.49627564103813826
0.6158154145768656
0.9073758378420543
0.32425499131167695
0.965687922495092
0.1451572901452768
0.6741274992299033
0.032694568046488286
0.7936672727686307
0.32133938707902504
0.6670504477899645
1.0781506445938804
0.78367461709604
0.032694568046488286
1.9499163101567947
1.428023152512107
0.6670504477899645
0.09100665269952601
0.8490637531890166
1.016922955708191
0.2047152177729496
0.8519793574216684
1.8362077450833711
0.8419867017490777
0.2630273024259873
0.4338021091778136
0.6670504477899645
0.7253625324430023
0.32009354410439
0.3171779398717381
0.25886585521870037
0.028533120839201332
0.6741274992299033
0.6770431034625553
1.0240000071481297
0.4338021091778136
0.2047152177729496
0.9073758378420543
0.4921141938308513
0.4408791606177524
1.021084402915478
0.3171779398717381
0.5575033299238279
0.7324395838829411
1.198936261107243
0.025617516606549446
0.7295239796502893
0.6770431034625553
1.1377085722215534
1.0823120918011675
1.198936261107243
1.1406241764542053
1.0852276960338194
1.196020656874591
1.0823120918011675
0.025617516606549446
0.6741274992299033
0.6158154145768656
0.028533120839201332
0.735355188115593
0.7295239796502893
1.0240000071481297
0.965687922495092
1.198936261107243
0.43796355638510054
1.0240000071481297
0.7907516685359788
0.7324395838829411
1.0823120918011675
0.14224168591262493
0.6741274992299033
0.08809104846687413
0.7936672727686307
0.14640313311991188
0.7324395838829411
0.32425499131167695
0.9073758378420543
0.025617516606549446
0.7907516685359788
0.032694568046488286
0.787836064303327
0.3825670759647147
0.9073758378420543
0.26594290665863923
0.8490637531890166
0.09100665269952601
0.7907516685359788
0.32133938707902504
0.9073758378420543
0.3825670759647147
0.965687922495092
0.20346937479831453
0.6741274992299033
0.14224168591262493
0.02270191237389756
2.533037156687172
0.78367461709604
1.8945198297364088
0.4308865049451617
0.14931873735256376
0.20763082200560148
0.32009354410439
0.3171779398717381
0.25886585521870037
0.4338021091778136
0.09392225693217791
0.6128998103442137
0.7324395838829411
0.20763082200560148
0.9073758378420543
0.32717059554432887
0.9627723182624401
0.6741274992299033
0.4921141938308513
0.08392960125958718
0.6741274992299033
0.553341882716541
0.4437947648504043
0.6128998103442137
0.7907516685359788
1.0852276960338194
1.1406241764542053
1.1406241764542053
0.08809104846687413
0.7907516685359788
0.5575033299238279
1.0240000071481297
0.14931873735256376
0.6187310188095175
0.43796355638510054
0.9073758378420543
0.02270191237389756
0.554587725691176
0.32425499131167695
0.9686035267277439
0.08684520549223906
0.78367461709604
1.016922955708191
0.9586108710551532
0.7282781366756541
0.9586108710551532
0.78367461709604
0.9586108710551532
0.7865902213286918
0.8973831821694636
0.08809104846687413
0.6741274992299033
0.4921141938308513
3.6992788497479268
1.4834196329324927
1.9528319143894466
1.0198385599408428
1.0752350403612287
0.9002987864021155
0.48919858959819945
1.60295940647122
0.14224168591262493
0.3825670759647147
0.4408791606177524
1.0240000071481297
0.2047152177729496
0.6187310188095175
0.8490637531890166
1.1406241764542053
5.043372401000447
2.299788818075021
2.474725072034134
0.6699660520226164
0.9586108710551532
0.14931873735256376
0.8461481489563647
1.0240000071481297
1.2018518653398949
0.2630273024259873
1.1335471250142664
0.13932608167997304
0.6741274992299033
0.7253625324430023
0.2630273024259873
1.425107548279455
1.8945198297364088
0.37257442029212395
0.08392960125958718
0.3825670759647147
0.6699660520226164
0.8973831821694636
0.553341882716541
0.37549002452477587
0.8419867017490777
0.09100665269952601
1.1335471250142664
0.08809104846687413
0.09392225693217791
0.7295239796502893
0.735355188115593
0.26594290665863923
0.7907516685359788
0.7907516685359788
0.9627723182624401
0.3825670759647147
0.8519793574216684
0.26594290665863923
0.8461481489563647
0.26594290665863923
0.8490637531890166
0.3825670759647147
0.8490637531890166
0.025617516606549446
1.1335471250142664
1.0781506445938804
1.0198385599408428
0.9586108710551532
0.9002987864021155
0.7253625324430023
1.1918592096673042
1.3113989832060315
0.78367461709604
0.78367461709604
0.9032143906347674
1.0752350403612287
0.78367461709604
1.0752350403612287
0.9032143906347674
0.7253625324430023
0.550426278483889
1.1364627292469183
1.2501712943203418
0.8419867017490777
1.0198385599408428
1.1918592096673042
0.9615264752878051
0.8973831821694636
1.3667954636264172
0.9032143906347674
0.6087383631369268
0.553341882716541
0.7807590128633881
0.6699660520226164
0.8419867017490777
0.26594290665863923
0.8461481489563647
0.6741274992299033
1.1406241764542053
1.1406241764542053
1.0240000071481297
1.198936261107243
1.0823120918011675
1.0823120918011675
1.0852276960338194
1.196020656874591
1.1406241764542053
1.1406241764542053
0.550426278483889
0.43796355638510054
0.21054642623825337
0.8461481489563647
0.43671771341046545
1.4834196329324927
1.1335471250142664
0.09100665269952601
0.6712118949972514
0.9686035267277439
0.4921141938308513
0.9032143906347674
0.8419867017490777
1.1918592096673042
1.2501712943203418
1.0781506445938804
1.3084833789733796
1.2501712943203418
0.9032143906347674
1.0781506445938804
1.2501712943203418
1.1918592096673042
0.7253625324430023
0.7865902213286918
1.1335471250142664
0.09100665269952601
0.5575033299238279
0.20763082200560148
2.944137353491088
1.0752350403612287
0.14931873735256376
0.8490637531890166
2.3610165069607105
0.7324395838829411
0.3171779398717381
0.49627564103813826
0.7324395838829411
0.9686035267277439
0.2630273024259873
0.8490637531890166
0.08809104846687413
0.7907516685359788
0.26594290665863923
0.9686035267277439
0.3784056287574277
0.20055377056566265
0.6741274992299033
0.8419867017490777
1.1364627292469183
1.194774813899956
0.8973831821694636
0.9032143906347674
0.9586108710551532
0.9615264752878051
0.6641348435573127
0.6699660520226164
0.8419867017490777
1.0198385599408428
0.6087383631369268
0.25886585521870037
0.5575033299238279
0.9073758378420543
1.0823120918011675
1.198936261107243
1.1406241764542053
0.08392960125958718
0.6741274992299033
0.9627723182624401
1.1406241764542053
0.32717059554432887
0.9627723182624401
0.7865902213286918
0.2688585108912911
0.8490637531890166
1.1406241764542053
1.0793964875685156
1.143539780686857
1.1406241764542053
1.0793964875685156
1.1406241764542053
1.1406241764542053
1.1406241764542053
1.1406241764542053
1.198936261107243
1.0823120918011675
1.1377085722215534
1.1406241764542053
0.8519793574216684
1.1406241764542053
1.196020656874591
1.014007351475539
1.372626672091721
1.1918592096673042
1.6000438022385683
1.3113989832060315
1.016922955708191
1.425107548279455
1.658355886891606
1.2530868985529937
1.2501712943203418
0.6699660520226164
1.7749800561976814
1.1364627292469183
0.8419867017490777
0.14931873735256376
0.6741274992299033
0.4921141938308513
0.4408791606177524
0.8490637531890166
1.0240000071481297
1.0240000071481297
1.1406241764542053
1.1406241764542053
0.6670504477899645
0.32133938707902504
0.9073758378420543
0.8490637531890166
1.198936261107243
1.0240000071481297
1.1406241764542053
0.6741274992299033
1.196020656874591
1.1406241764542053
1.1406241764542053
1.0240000071481297
1.198936261107243
1.1406241764542053
1.194774813899956
0.19763816633301076
0.5575033299238279
1.0240000071481297
0.1451572901452768
0.6741274992299033
1.1406241764542053
0.08392960125958718
2.4193285916137484
0.9002987864021155
0.7253625324430023
0.025617516606549446
0.3825670759647147
0.2047152177729496
0.9073758378420543
0.4408791606177524
0.9686035267277439
0.26594290665863923
0.6699660520226164
0.3171779398717381
1.1335471250142664
0.028533120839201332
0.7324395838829411
1.0198385599408428
0.02270191237389756
0.7907516685359788
0.6699660520226164
0.9586108710551532
1.016922955708191
0.6699660520226164
0.08392960125958718
1.1918592096673042
0.6087383631369268
0.32009354410439
0.5021068495034421
0.9627723182624401
0.9586108710551532
0.8419867017490777
0.6670504477899645
0.7865902213286918
0.032694568046488286
0.6741274992299033
0.8419867017490777
1.3667954636264172
1.4834196329324927
1.0781506445938804
0.7865902213286918
0.02270191237389756
0.7907516685359788
1.194774813899956
0.6670504477899645
0.9615264752878051
0.37549002452477587
0.5575033299238279
0.4308865049451617
0.4950297980635032
0.550426278483889
0.550426278483889
0.9586108710551532
0.43671771341046545
0.4408791606177524
0.965687922495092
0.965687922495092
0.965687922495092
1.1406241764542053
0.7324395838829411
1.198936261107243
1.7778956604303333
0.3171779398717381
0.14931873735256376
1.6000438022385683
0.3171779398717381
0.3171779398717381
0.25886585521870037
0.4338021091778136
0.6087383631369268
0.4921141938308513
0.43671771341046545
0.48919858959819945
0.32133938707902504
0.965687922495092
0.37549002452477587
0.25886585521870037
0.4338021091778136
0.4921141938308513
0.6116539673695787
0.32717059554432887
0.8461481489563647
0.37549002452477587
0.605822758904275
0.6699660520226164
0.7253625324430023
0.6699660520226164
0.31426233563908623
0.6670504477899645
0.8419867017490777
0.7865902213286918
0.5475106742512371
0.8449023059817296
0.8449023059817296
0.4921141938308513
0.5475106742512371
0.3171779398717381
0.4950297980635032
0.9586108710551532
0.8419867017490777
0.78367461709604
0.1451572901452768
1.1306315207816144
0.43671771341046545
0.4338021091778136
0.25886585521870037
0.08392960125958718
0.025617516606549446
0.7324395838829411
0.4338021091778136
0.08684520549223906
0.7253625324430023
0.6087383631369268
0.550426278483889
0.5475106742512371
0.4950297980635032
0.4338021091778136
0.3171779398717381
0.4921141938308513
0.9002987864021155
0.7865902213286918
0.6087383631369268
0.9002987864021155
0.09100665269952601
0.7907516685359788
0.9002987864021155
0.2617814594513523
0.8419867017490777
0.7253625324430023
0.08392960125958718
1.014007351475539
0.553341882716541
0.8419867017490777
0.6699660520226164
0.37257442029212395
0.6087383631369268
1.0198385599408428
0.9586108710551532
0.7282781366756541
0.6641348435573127
0.7282781366756541
0.550426278483889
0.3784056287574277
0.032694568046488286
0.8419867017490777
0.7253625324430023
0.6670504477899645
0.9002987864021155
1.428023152512107
1.1918592096673042
0.6670504477899645
0.7253625324430023
1.0198385599408428
0.7253625324430023
0.7253625324430023
0.8419867017490777
0.8449023059817296
0.4338021091778136
0.9586108710551532
0.9002987864021155
0.7282781366756541
0.8419867017490777
0.78367461709604
0.6087383631369268
0.43671771341046545
0.08392960125958718
1.3084833789733796
0.6087383631369268
0.43671771341046545
0.3171779398717381
0.09100665269952601
0.8490637531890166
1.0781506445938804
0.8973831821694636
0.9032143906347674
0.14931873735256376
0.7907516685359788
0.4921141938308513
0.14931873735256376
0.8490637531890166
0.08392960125958718
0.7295239796502893
0.21054642623825337
0.3796514717320628
0.3825670759647147
0.7324395838829411
1.198936261107243
1.1406241764542053
1.1406241764542053
0.43671771341046545
0.5021068495034421
0.787836064303327
0.8490637531890166
1.198936261107243
2.069456083695522
0.8419867017490777
0.9032143906347674
2.183164648768946
0.6116539673695787
2.474725072034134
0.7253625324430023
0.6087383631369268
0.1451572901452768
0.4437947648504043
1.0240000071481297
0.787836064303327
0.09100665269952601
0.8490637531890166
0.32425499131167695
0.965687922495092
0.32425499131167695
0.9073758378420543
4.635187808429182
1.9528319143894466
0.8419867017490777
2.069456083695522
0.5475106742512371
0.3784056287574277
1.2018518653398949
0.20055377056566265
0.32009354410439
2.535952760919824
1.9528319143894466
0.550426278483889
0.43796355638510054
0.4991912452707902
1.0240000071481297
0.9073758378420543
0.6741274992299033
1.1406241764542053
0.7253625324430023
0.32133938707902504
0.5021068495034421
0.028533120839201332
0.14931873735256376
0.4921141938308513
0.1451572901452768
1.3084833789733796
0.3171779398717381
3.002449438144126
1.016922955708191
0.08809104846687413
1.0852276960338194
2.1860802530015975
0.553341882716541
0.8490637531890166
0.25886585521870037
0.8419867017490777
0.4950297980635032
0.032694568046488286
0.37549002452477587
0.08392960125958718
0.26594290665863923
0.9073758378420543
0.3825670759647147
0.8461481489563647
0.3825670759647147
0.9073758378420543
0.14931873735256376
0.8490637531890166
0.3796514717320628
0.9686035267277439
0.32133938707902504
0.8973831821694636
0.2617814594513523
1.7749800561976814
0.6699660520226164
0.7253625324430023
0.7253625324430023
0.6087383631369268
0.7282781366756541
1.425107548279455
1.1918592096673042
0.9032143906347674
1.0752350403612287
0.09100665269952601
0.5575033299238279
0.9627723182624401
0.08101399702693529
0.32425499131167695
0.8461481489563647
1.0240000071481297
0.5604189341564798
1.1377085722215534
0.550426278483889
0.032694568046488286
0.7295239796502893
0.4338021091778136
0.4991912452707902
0.6741274992299033
0.965687922495092
0.7907516685359788
1.198936261107243
0.6158154145768656
1.0793964875685156
0.8519793574216684
0.9073758378420543
1.1406241764542053
0.4979454022961551
0.09392225693217791
0.43796355638510054
0.5575033299238279
0.8490637531890166
0.5575033299238279
1.0240000071481297
0.08809104846687413
0.735355188115593
0.32133938707902504
0.9073758378420543
0.32717059554432887
0.9073758378420543
0.43796355638510054
0.965687922495092
1.0240000071481297
1.198936261107243
1.1406241764542053
0.6128998103442137
0.9073758378420543
1.2018518653398949
0.20763082200560148
0.9044602336094024
0.14931873735256376
0.8490637531890166
0.32425499131167695
0.965687922495092
0.6158154145768656
1.1406241764542053
0.6128998103442137
1.0852276960338194
0.08684520549223906
0.7295239796502893
0.6187310188095175
0.9073758378420543
0.6712118949972514
1.1406241764542053
0.7907516685359788
1.1406241764542053
0.032694568046488286
0.7907516685359788
0.14931873735256376
0.7907516685359788
0.43671771341046545
0.4991912452707902
0.32425499131167695
0.965687922495092
0.37549002452477587
0.4408791606177524
0.2047152177729496
0.8519793574216684
0.032694568046488286
0.7295239796502893
0.032694568046488286
0.7324395838829411
0.08392960125958718
0.7295239796502893
0.032694568046488286
0.7936672727686307
1.021084402915478
1.198936261107243
1.0823120918011675
1.198936261107243
1.1377085722215534
1.1406241764542053
0.7807590128633881
0.26594290665863923
0.6128998103442137
1.0823120918011675
0.09100665269952601
0.787836064303327
0.32425499131167695
0.9102914420747061
0.08809104846687413
0.7907516685359788
0.9073758378420543
1.1406241764542053
0.553341882716541
0.4408791606177524
0.9073758378420543
1.1406241764542053
0.9002987864021155
0.08809104846687413
0.8519793574216684
0.20055377056566265
0.6712118949972514
0.735355188115593
1.0793964875685156
0.6158154145768656
0.965687922495092
0.8490637531890166
1.198936261107243
1.1406241764542053
0.3825670759647147
0.9073758378420543
0.9073758378420543
0.4408791606177524
0.9627723182624401
1.1406241764542053
0.3825670759647147
0.4408791606177524
1.0752350403612287
0.6699660520226164
0.4921141938308513
0.6116539673695787
0.6641348435573127
0.4921141938308513
0.6670504477899645
1.0198385599408428
0.9002987864021155
0.7865902213286918
1.2472556900876899
1.3667954636264172
0.08684520549223906
1.8332921408507192
4.049151357666153
1.7195835757772957
0.2617814594513523
0.6158154145768656
0.9686035267277439
1.196020656874591
1.1406241764542053
0.8490637531890166
1.2018518653398949
1.1406241764542053
0.9032143906347674
0.2047152177729496
0.8519793574216684
1.1406241764542053
1.0823120918011675
1.1406241764542053
1.2018518653398949
1.0793964875685156
1.1406241764542053
1.198936261107243
0.7324395838829411
1.143539780686857
1.1406241764542053
1.1377085722215534
1.1406241764542053
1.2018518653398949
1.1406241764542053
1.1377085722215534
1.1406241764542053
1.2018518653398949
1.0793964875685156
1.0240000071481297
1.198936261107243
0.735355188115593
1.1406241764542053
1.1406241764542053
1.1406241764542053
1.1406241764542053
1.1377085722215534
1.1406241764542053
1.1406241764542053
1.143539780686857
1.1406241764542053
1.0240000071481297
1.1406241764542053
1.198936261107243
1.0823120918011675
1.1406241764542053
1.198936261107243
1.1406241764542053
1.143539780686857
1.1377085722215534
1.1406241764542053
1.1406241764542053
1.1406241764542053
1.1406241764542053
1.1406241764542053
1.0823120918011675
1.1406241764542053
1.1406241764542053
1.1406241764542053
1.198936261107243
0.6187310188095175
0.2630273024259873
0.14224168591262493
0.6158154145768656
0.9002987864021155
0.08392960125958718
0.6741274992299033
0.6670504477899645
0.32425499131167695
0.7907516685359788
0.9627723182624401
0.19763816633301076
0.6741274992299033
0.4408791606177524
1.021084402915478
0.14224168591262493
0.6741274992299033
0.09100665269952601
0.7907516685359788
0.32133938707902504
0.9073758378420543
0.14931873735256376
0.6712118949972514
0.32717059554432887
0.9627723182624401
0.02270191237389756
0.7295239796502893
0.4437947648504043
0.9627723182624401
0.14224168591262493
1.2530868985529937
0.9002987864021155
0.7253625324430023
0.9586108710551532
0.7865902213286918
0.6087383631369268
0.3171779398717381
0.4991912452707902
0.032694568046488286
0.6087383631369268
0.6699660520226164
0.9002987864021155
0.78367461709604
0.08809104846687413
0.7907516685359788
0.08392960125958718
0.7324395838829411
0.4991912452707902
0.7865902213286918
0.4921141938308513
0.7253625324430023
0.028533120839201332
0.7907516685359788
0.7253625324430023
0.37549002452477587
0.7865902213286918
0.7807590128633881
0.553341882716541
0.37549002452477587
0.7253625324430023
0.7253625324430023
0.3784056287574277
0.4921141938308513
0.8419867017490777
0.20055377056566265
0.9032143906347674
0.4921141938308513
0.6087383631369268
0.553341882716541
0.37257442029212395
0.7282781366756541
0.8419867017490777
0.26594290665863923
0.9073758378420543
0.4950297980635032
0.7807590128633881
0.9032143906347674
0.09100665269952601
0.8490637531890166
0.9615264752878051
1.014007351475539
1.0781506445938804
0.09100665269952601
0.7324395838829411
0.9032143906347674
4.049151357666153
3.002449438144126
1.1335471250142664
0.9032143906347674
1.1889436054346523
1.3113989832060315
1.1364627292469183
1.3084833789733796
0.025617516606549446
0.6158154145768656
1.0752350403612287
0.8449023059817296
0.26594290665863923
0.9073758378420543
0.6116539673695787
0.20055377056566265
0.4991912452707902
0.9073758378420543
0.8519793574216684
0.08684520549223906
0.6741274992299033
0.6741274992299033
1.196020656874591
1.143539780686857
1.1406241764542053
1.1406241764542053
1.1406241764542053
1.1406241764542053
1.196020656874591
0.9686035267277439
1.1377085722215534
1.2018518653398949
1.1377085722215534
0.7907516685359788
0.9073758378420543
1.198936261107243
0.6699660520226164
0.3825670759647147
0.6187310188095175
1.196020656874591
0.26594290665863923
0.6158154145768656
1.0752350403612287
0.08809104846687413
0.5575033299238279
1.1335471250142664
0.09100665269952601
0.7907516685359788
1.1364627292469183
1.0752350403612287
1.1335471250142664
4.460251554470069
1.9499163101567947
0.3784056287574277
1.3084833789733796
0.08392960125958718
0.7295239796502893
0.8419867017490777
0.9586108710551532
0.37549002452477587
0.4991912452707902
0.6741274992299033
1.8362077450833711
1.2501712943203418
0.025617516606549446
0.7324395838829411
0.9073758378420543
1.0793964875685156
1.143539780686857
1.198936261107243
0.4338021091778136
0.554587725691176
1.0269156113807816
1.196020656874591
1.1918592096673042
1.1335471250142664
0.9615264752878051
1.0752350403612287
1.6000438022385683
1.0781506445938804
0.9586108710551532
1.016922955708191
0.14640313311991188
0.5604189341564798
1.0793964875685156
1.0823120918011675
1.198936261107243
0.37549002452477587
1.5417317175855305
0.20346937479831453
0.9586108710551532
0.3171779398717381
0.4991912452707902
1.0823120918011675
0.9044602336094024
0.735355188115593
1.1406241764542053
1.198936261107243
1.021084402915478
1.198936261107243
1.1406241764542053
0.20055377056566265
0.14931873735256376
0.4437947648504043
1.0240000071481297
1.196020656874591
1.0269156113807816
1.0793964875685156
1.1406241764542053
1.1406241764542053
0.9586108710551532
0.2047152177729496
0.8490637531890166
0.9586108710551532
0.37549002452477587
0.5575033299238279
0.6087383631369268
0.032694568046488286
0.7907516685359788
0.8449023059817296
0.9032143906347674
0.6670504477899645
0.9002987864021155
1.2501712943203418
1.0198385599408428
1.3084833789733796
1.3113989832060315
0.13932608167997304
0.554587725691176
1.0240000071481297
0.14224168591262493
0.5575033299238279
0.20763082200560148
0.9073758378420543
0.14224168591262493
0.6158154145768656
0.6128998103442137
1.0240000071481297
0.735355188115593
1.1406241764542053
0.43671771341046545
1.6612714911242579
0.20055377056566265
1.6000438022385683
1.3667954636264172
0.08684520549223906
0.6741274992299033
0.9002987864021155
0.14640313311991188
0.8519793574216684
1.1406241764542053
0.7907516685359788
1.0793964875685156
1.2018518653398949
1.1406241764542053
0.3171779398717381
0.49627564103813826
0.965687922495092
1.198936261107243
1.0240000071481297
1.1406241764542053
1.1406241764542053
1.196020656874591
1.0852276960338194
1.1406241764542053
1.198936261107243
1.1406241764542053
1.196020656874591
0.8519793574216684
1.1406241764542053
1.196020656874591
1.0823120918011675
1.198936261107243
1.1406241764542053
1.1377085722215534
1.143539780686857
1.198936261107243
1.1406241764542053
1.1377085722215534
1.1406241764542053
1.2018518653398949
1.1406241764542053
1.1377085722215534
1.2018518653398949
1.0793964875685156
1.1406241764542053
1.198936261107243
0.735355188115593
0.8490637531890166
1.1377085722215534
1.0852276960338194
0.08684520549223906
0.6741274992299033
0.08809104846687413
0.6770431034625553
0.7295239796502893
1.2018518653398949
0.4408791606177524
1.0240000071481297
0.028533120839201332
0.7324395838829411
0.965687922495092
0.14931873735256376
0.8490637531890166
0.028533120839201332
0.7324395838829411
0.20055377056566265
0.6158154145768656
0.32425499131167695
0.9627723182624401
0.02270191237389756
0.2047152177729496
0.7324395838829411
1.0240000071481297
0.08392960125958718
0.6741274992299033
0.32133938707902504
0.9686035267277439
0.2617814594513523
0.6770431034625553
0.0297789638138364
0.7324395838829411
1.0823120918011675
1.0240000071481297
1.1377085722215534
0.02270191237389756
0.7295239796502893
0.9102914420747061
0.787836064303327
1.021084402915478
0.9686035267277439
1.1406241764542053
1.198936261107243
0.25886585521870037
0.554587725691176
0.6741274992299033
0.43671771341046545
0.032694568046488286
0.5604189341564798
1.0793964875685156
1.198936261107243
1.1406241764542053
1.1406241764542053
1.1406241764542053
1.198936261107243
0.08392960125958718
0.7324395838829411
0.43796355638510054
1.0269156113807816
1.1406241764542053
0.26011169819333546
1.4834196329324927
0.14224168591262493
0.6158154145768656
1.198936261107243
0.7907516685359788
1.1406241764542053
1.0240000071481297
1.1406241764542053
1.1377085722215534
1.2018518653398949
1.1406241764542053
1.1406241764542053
1.196020656874591
1.143539780686857
1.196020656874591
0.37549002452477587
0.5575033299238279
0.6741274992299033
0.787836064303327
3.174470087870587
1.0240000071481297
1.0793964875685156
0.9686035267277439
