z
0.09223473206083518
0.20013919541231767
0.3617142605948495
0.053952231675741244
0.053952231675741244
0.09992878278381288
0.053952231675741244
0.35402020987187177
0.053952231675741244
0.09223473206083518
0.253809797243367
0.09992878278381288
0.20783324613529539
0.20013919541231767
0.053952231675741244
0.09223473206083518
0.053952231675741244
0.3617142605948495
0.3617142605948495
0.053952231675741244
0.053952231675741244
0.20013919541231767
0.3617142605948495
0.3617142605948495
0.3617142605948495
0.053952231675741244
0.053952231675741244
0.20783324613529539
0.3617142605948495
0.3617142605948495
0.20013919541231767
0.053952231675741244
0.09223473206083518
0.20013919541231767
0.3617142605948495
0.3617142605948495
0.053952231675741244
0.053952231675741244
0.20783324613529539
0.3617142605948495
0.35402020987187177
0.3617142605948495
0.21552729685827307
0.053952231675741244
0.20013919541231767
0.3617142605948495
0.20783324613529539
0.20783324613529539
0.053952231675741244
0.1076228335067906
0.20783324613529539
0.20783324613529539
0.20783324613529539
0.1076228335067906
0.09223473206083518
0.3617142605948495
0.3617142605948495
0.20013919541231767
0.21552729685827307
0.20013919541231767
0.3617142605948495
0.5079012243314259
0.6694762895139578
0.053952231675741244
0.053952231675741244
0.40769081170292115
0.40769081170292115
0.053952231675741244
0.20783324613529539
0.053952231675741244
0.1076228335067906
0.09223473206083518
0.20013919541231767
0.053952231675741244
0.20013919541231767
0.40769081170292115
0.253809797243367
0.09223473206083518
0.04625818095276354
0.04625818095276354
0.09223473206083518
0.5692658768854529
0.09223473206083518
0.053952231675741244
0.1076228335067906
0.09992878278381288
0.253809797243367
0.1076228335067906
0.053952231675741244
0.3617142605948495
0.20783324613529539
0.09992878278381288
0.1076228335067906
0.053952231675741244
0.21552729685827307
0.053952231675741244
0.04625818095276354
0.09992878278381288
0.053952231675741244
0.35402020987187177
0.21552729685827307
0.053952231675741244
0.1076228335067906
0.09992878278381288
0.3617142605948495
0.20783324613529539
0.053952231675741244
0.253809797243367
0.1076228335067906
0.20783324613529539
0.20783324613529539
0.20783324613529539
0.053952231675741244
0.1076228335067906
0.053952231675741244
0.21552729685827307
0.20013919541231767
0.09992878278381288
0.41538486242589884
0.09223473206083518
0.20013919541231767
0.09223473206083518
0.1076228335067906
0.40769081170292115
0.253809797243367
0.1076228335067906
0.053952231675741244
0.053952231675741244
0.253809797243367
0.253809797243367
0.09992878278381288
0.20013919541231767
0.21552729685827307
0.1076228335067906
0.40769081170292115
0.253809797243367
0.09992878278381288
0.04625818095276354
0.09223473206083518
0.41538486242589884
0.21552729685827307
0.20013919541231767
2.054405419649945
2.9776915064072695
0.5155952750544036
0.6617822387909801
0.3617142605948495
0.053952231675741244
0.5615718261624753
0.26150384796634474
0.3617142605948495
0.053952231675741244
0.053952231675741244
0.20783324613529539
0.3617142605948495
0.3617142605948495
0.5155952750544036
0.3617142605948495
0.3617142605948495
0.5079012243314259
0.3617142605948495
0.053952231675741244
0.8693338550815836
2.1003819707580167
0.8693338550815836
0.26150384796634474
0.09992878278381288
0.253809797243367
0.26150384796634474
0.253809797243367
0.09992878278381288
0.20783324613529539
0.3617142605948495
0.09992878278381288
0.41538486242589884
0.8693338550815836
1.169401833277714
0.7231468913450071
0.5692658768854529
0.7077587898990517
0.09992878278381288
0.20013919541231767
0.20783324613529539
0.053952231675741244
0.09992878278381288
0.253809797243367
0.253809797243367
0.053952231675741244
0.20013919541231767
0.3617142605948495
0.053952231675741244
0.053952231675741244
0.5692658768854529
0.253809797243367
0.053952231675741244
0.21552729685827307
0.04625818095276354
0.40769081170292115
0.26150384796634474
0.09223473206083518
0.053952231675741244
0.3617142605948495
0.20013919541231767
0.20783324613529539
0.053952231675741244
0.3617142605948495
0.35402020987187177
0.5232893257773813
0.6694762895139578
0.3617142605948495
0.20013919541231767
0.053952231675741244
0.053952231675741244
0.3617142605948495
0.1076228335067906
0.7154528406220294
1.330976898460246
0.40769081170292115
0.26150384796634474
0.253809797243367
0.253809797243367
0.40769081170292115
0.1076228335067906
0.3617142605948495
0.053952231675741244
0.053952231675741244
0.09223473206083518
0.26150384796634474
0.053952231675741244
0.053952231675741244
0.20013919541231767
0.253809797243367
0.253809797243367
0.053952231675741244
0.053952231675741244
0.20783324613529539
0.09992878278381288
0.09992878278381288
0.1076228335067906
0.21552729685827307
0.053952231675741244
0.04625818095276354
0.09992878278381288
0.09992878278381288
0.20013919541231767
0.053952231675741244
0.09223473206083518
0.41538486242589884
0.09992878278381288
0.20783324613529539
0.20783324613529539
0.1076228335067906
0.053952231675741244
0.253809797243367
0.053952231675741244
0.3617142605948495
0.20013919541231767
0.09223473206083518
0.26150384796634474
0.09992878278381288
0.20783324613529539
0.20783324613529539
0.09992878278381288
0.1076228335067906
0.09223473206083518
0.20013919541231767
0.20783324613529539
0.20783324613529539
0.09992878278381288
0.41538486242589884
0.09223473206083518
0.20013919541231767
0.21552729685827307
0.04625818095276354
0.253809797243367
0.253809797243367
0.053952231675741244
0.20013919541231767
0.3617142605948495
0.20783324613529539
0.04625818095276354
0.21552729685827307
0.20013919541231767
0.21552729685827307
0.20013919541231767
0.253809797243367
0.09992878278381288
1.900524405190391
2.6699294774881617
0.04625818095276354
0.053952231675741244
0.3999967609799434
0.20013919541231767
0.20783324613529539
0.35402020987187177
0.21552729685827307
0.1076228335067906
0.053952231675741244
0.04625818095276354
0.21552729685827307
0.053952231675741244
0.1076228335067906
0.09223473206083518
0.20013919541231767
0.3617142605948495
0.09992878278381288
0.053952231675741244
0.1076228335067906
0.21552729685827307
0.20013919541231767
0.20783324613529539
0.20783324613529539
0.1076228335067906
0.21552729685827307
0.3617142605948495
2.2005923833865215
2.831504542670693
0.3617142605948495
0.04625818095276354
0.053952231675741244
0.053952231675741244
2.054405419649945
2.969997455684292
0.09992878278381288
0.5615718261624753
0.7154528406220294
0.253809797243367
0.053952231675741244
0.41538486242589884
0.253809797243367
0.5692658768854529
0.09223473206083518
0.053952231675741244
0.20013919541231767
0.053952231675741244
0.40769081170292115
0.41538486242589884
0.3999967609799434
0.20013919541231767
0.09992878278381288
0.09992878278381288
0.40769081170292115
0.253809797243367
0.053952231675741244
0.053952231675741244
0.09992878278381288
0.41538486242589884
0.3999967609799434
0.04625818095276354
0.09992878278381288
0.053952231675741244
0.26150384796634474
0.3999967609799434
0.26150384796634474
0.3617142605948495
0.09992878278381288
0.09992878278381288
0.1076228335067906
0.09223473206083518
0.053952231675741244
0.04625818095276354
0.053952231675741244
0.40769081170292115
0.09992878278381288
0.20013919541231767
0.053952231675741244
0.09223473206083518
0.26150384796634474
0.253809797243367
0.20783324613529539
2.0467113689269674
2.831504542670693
0.053952231675741244
0.41538486242589884
0.253809797243367
0.09992878278381288
0.20013919541231767
0.09223473206083518
0.41538486242589884
0.21552729685827307
0.20013919541231767
0.09223473206083518
0.20013919541231767
0.053952231675741244
0.21552729685827307
0.5079012243314259
0.5155952750544036
0.3617142605948495
0.053952231675741244
0.09992878278381288
0.7154528406220294
0.40769081170292115
0.053952231675741244
0.1076228335067906
0.09223473206083518
0.253809797243367
0.253809797243367
0.40769081170292115
0.053952231675741244
0.04625818095276354
0.053952231675741244
0.053952231675741244
0.09992878278381288
0.20783324613529539
0.053952231675741244
0.053952231675741244
0.40769081170292115
0.7154528406220294
0.40769081170292115
0.09992878278381288
0.253809797243367
0.253809797243367
0.41538486242589884
0.3999967609799434
0.41538486242589884
0.053952231675741244
0.09992878278381288
0.09992878278381288
0.7154528406220294
0.5615718261624753
0.253809797243367
0.09992878278381288
0.253809797243367
0.5615718261624753
0.7231468913450071
0.253809797243367
0.053952231675741244
0.21552729685827307
0.053952231675741244
0.04625818095276354
0.09992878278381288
0.3617142605948495
0.20783324613529539
0.053952231675741244
0.253809797243367
0.40769081170292115
0.053952231675741244
0.09992878278381288
0.053952231675741244
0.253809797243367
0.253809797243367
0.20013919541231767
0.053952231675741244
0.21552729685827307
0.053952231675741244
0.053952231675741244
0.20013919541231767
0.21552729685827307
0.35402020987187177
0.20783324613529539
0.09992878278381288
0.40769081170292115
0.253809797243367
0.053952231675741244
0.053952231675741244
0.1076228335067906
1.01552081881816
0.7154528406220294
0.253809797243367
0.5692658768854529
0.40769081170292115
0.5538777754394976
0.1076228335067906
0.3617142605948495
0.053952231675741244
0.09992878278381288
0.26150384796634474
0.2461157465203893
0.053952231675741244
0.04625818095276354
0.3999967609799434
0.40769081170292115
0.1076228335067906
0.053952231675741244
0.053952231675741244
0.09223473206083518
0.253809797243367
0.253809797243367
0.20013919541231767
0.053952231675741244
0.21552729685827307
0.053952231675741244
0.20013919541231767
0.5155952750544036
0.20783324613529539
0.5155952750544036
0.20783324613529539
0.053952231675741244
0.053952231675741244
0.35402020987187177
0.3617142605948495
0.21552729685827307
0.053952231675741244
0.053952231675741244
0.253809797243367
0.3617142605948495
0.20013919541231767
0.3617142605948495
0.21552729685827307
0.1076228335067906
0.20013919541231767
0.3617142605948495
0.3617142605948495
0.3617142605948495
0.09223473206083518
0.053952231675741244
0.04625818095276354
0.3617142605948495
0.20783324613529539
0.20013919541231767
0.21552729685827307
0.04625818095276354
0.053952231675741244
0.20783324613529539
0.20783324613529539
0.20783324613529539
0.26150384796634474
0.3999967609799434
0.1076228335067906
0.053952231675741244
0.09992878278381288
0.09992878278381288
0.26150384796634474
0.09223473206083518
0.20013919541231767
0.3617142605948495
0.053952231675741244
0.053952231675741244
0.20783324613529539
0.20783324613529539
0.3617142605948495
0.20013919541231767
0.053952231675741244
0.053952231675741244
0.053952231675741244
0.35402020987187177
0.09223473206083518
0.3617142605948495
0.1076228335067906
0.253809797243367
0.253809797243367
0.253809797243367
0.04625818095276354
0.21552729685827307
0.1076228335067906
0.053952231675741244
0.09992878278381288
0.35402020987187177
0.053952231675741244
0.3617142605948495
0.21552729685827307
0.26150384796634474
0.5155952750544036
2.208286434109499
3.1315725208668237
0.3617142605948495
0.6694762895139578
0.6694762895139578
0.5079012243314259
0.6694762895139578
0.5155952750544036
3.6468861660765355
3.793073129813112
0.253809797243367
0.6617822387909801
0.3694083113178272
0.04625818095276354
0.21552729685827307
0.6617822387909801
0.3617142605948495
0.20783324613529539
0.20783324613529539
0.09992878278381288
0.41538486242589884
0.09223473206083518
0.04625818095276354
0.09992878278381288
0.40769081170292115
0.7231468913450071
0.7154528406220294
0.053952231675741244
0.253809797243367
0.253809797243367
0.5615718261624753
0.7154528406220294
0.1076228335067906
0.053952231675741244
0.09992878278381288
0.253809797243367
0.253809797243367
0.41538486242589884
0.09223473206083518
0.1076228335067906
0.5692658768854529
0.8616398043586059
0.7231468913450071
0.09223473206083518
0.26150384796634474
0.40769081170292115
0.5692658768854529
0.3999967609799434
0.053952231675741244
0.09992878278381288
0.253809797243367
0.5692658768854529
0.09992878278381288
0.053952231675741244
0.09992878278381288
0.1076228335067906
0.3999967609799434
0.41538486242589884
0.09992878278381288
0.20783324613529539
0.053952231675741244
0.04625818095276354
0.253809797243367
0.053952231675741244
0.21552729685827307
0.04625818095276354
0.253809797243367
0.41538486242589884
0.09223473206083518
0.20013919541231767
0.053952231675741244
0.253809797243367
0.253809797243367
0.09992878278381288
0.053952231675741244
0.1076228335067906
0.40769081170292115
0.253809797243367
0.09992878278381288
0.04625818095276354
0.3999967609799434
0.253809797243367
0.1076228335067906
0.20783324613529539
0.053952231675741244
0.1076228335067906
0.3999967609799434
0.1076228335067906
0.053952231675741244
0.09992878278381288
0.253809797243367
0.41538486242589884
0.09223473206083518
0.1076228335067906
0.253809797243367
0.5615718261624753
0.40769081170292115
0.053952231675741244
0.09992878278381288
0.253809797243367
0.253809797243367
0.1076228335067906
0.053952231675741244
0.20783324613529539
0.09992878278381288
0.26150384796634474
0.053952231675741244
0.053952231675741244
0.053952231675741244
0.253809797243367
0.8770279058045612
0.3999967609799434
0.1076228335067906
0.09992878278381288
0.40769081170292115
0.09992878278381288
0.1076228335067906
0.21552729685827307
0.053952231675741244
0.1076228335067906
0.253809797243367
0.053952231675741244
0.053952231675741244
0.04625818095276354
0.253809797243367
0.5615718261624753
0.09992878278381288
0.09992878278381288
0.04625818095276354
0.3999967609799434
0.7154528406220294
0.253809797243367
0.053952231675741244
0.26150384796634474
0.40769081170292115
0.5692658768854529
0.053952231675741244
0.09223473206083518
0.04625818095276354
0.09992878278381288
0.20783324613529539
0.5155952750544036
0.20783324613529539
0.20013919541231767
0.20783324613529539
0.3617142605948495
0.3617142605948495
0.3617142605948495
0.3617142605948495
0.20013919541231767
0.09992878278381288
0.5155952750544036
0.3617142605948495
0.20783324613529539
0.3617142605948495
0.09992878278381288
0.04625818095276354
0.21552729685827307
0.35402020987187177
0.20783324613529539
0.053952231675741244
0.253809797243367
0.053952231675741244
0.1076228335067906
0.21552729685827307
0.1076228335067906
0.40769081170292115
0.1076228335067906
0.053952231675741244
0.09223473206083518
0.1076228335067906
0.40769081170292115
0.09992878278381288
0.04625818095276354
0.21552729685827307
0.053952231675741244
0.253809797243367
0.41538486242589884
0.053952231675741244
0.04625818095276354
0.253809797243367
0.5538777754394976
0.5615718261624753
0.253809797243367
0.20013919541231767
0.20783324613529539
0.20783324613529539
0.053952231675741244
0.40769081170292115
0.7231468913450071
0.5615718261624753
0.053952231675741244
0.053952231675741244
0.09992878278381288
0.053952231675741244
0.1076228335067906
0.053952231675741244
0.20783324613529539
0.053952231675741244
0.253809797243367
0.253809797243367
0.5615718261624753
0.1076228335067906
0.09992878278381288
0.09992878278381288
0.26150384796634474
0.253809797243367
0.253809797243367
0.20783324613529539
0.09992878278381288
0.253809797243367
0.09992878278381288
0.253809797243367
0.3617142605948495
0.053952231675741244
0.1076228335067906
0.40769081170292115
0.253809797243367
0.053952231675741244
0.1076228335067906
0.253809797243367
0.40769081170292115
0.053952231675741244
0.053952231675741244
0.053952231675741244
0.053952231675741244
0.053952231675741244
0.20013919541231767
0.20783324613529539
0.053952231675741244
0.253809797243367
0.41538486242589884
0.053952231675741244
0.21552729685827307
0.04625818095276354
0.053952231675741244
0.053952231675741244
0.053952231675741244
0.35402020987187177
0.3617142605948495
0.053952231675741244
0.09992878278381288
0.20783324613529539
0.20783324613529539
0.20013919541231767
0.053952231675741244
0.253809797243367
0.053952231675741244
0.3617142605948495
0.053952231675741244
0.053952231675741244
0.053952231675741244
0.3617142605948495
0.35402020987187177
0.20783324613529539
0.053952231675741244
0.09992878278381288
0.20783324613529539
0.20783324613529539
0.20013919541231767
0.21552729685827307
0.04625818095276354
0.04625818095276354
0.5232893257773813
0.20013919541231767
0.09223473206083518
0.253809797243367
0.26150384796634474
0.20783324613529539
0.09992878278381288
0.1076228335067906
0.3999967609799434
0.26150384796634474
0.053952231675741244
0.053952231675741244
0.09992878278381288
0.40769081170292115
0.253809797243367
0.1076228335067906
0.20783324613529539
0.09992878278381288
2.2619570359405485
2.4004499489541473
0.1076228335067906
0.053952231675741244
0.253809797243367
0.253809797243367
0.40769081170292115
0.09223473206083518
0.053952231675741244
0.1076228335067906
0.3999967609799434
0.41538486242589884
0.40769081170292115
0.053952231675741244
0.053952231675741244
0.41538486242589884
0.253809797243367
0.253809797243367
0.21552729685827307
0.053952231675741244
0.253809797243367
0.41538486242589884
0.5615718261624753
0.053952231675741244
0.053952231675741244
2.0467113689269674
2.831504542670693
0.253809797243367
0.1076228335067906
0.09992878278381288
0.053952231675741244
0.053952231675741244
0.253809797243367
0.053952231675741244
0.20013919541231767
0.20783324613529539
0.09992878278381288
0.40769081170292115
0.1076228335067906
1.7466433907308367
3.1392665715898014
0.053952231675741244
0.1076228335067906
1.900524405190391
2.6699294774881617
0.053952231675741244
0.3617142605948495
0.053952231675741244
0.053952231675741244
0.1076228335067906
0.253809797243367
0.04625818095276354
0.09223473206083518
0.1076228335067906
1.800313992561886
0.3999967609799434
0.04625818095276354
0.3999967609799434
0.7231468913450071
0.7154528406220294
0.053952231675741244
0.053952231675741244
0.1076228335067906
0.253809797243367
0.40769081170292115
0.253809797243367
0.1076228335067906
0.253809797243367
0.5538777754394976
0.5615718261624753
0.04625818095276354
0.253809797243367
0.5615718261624753
0.5615718261624753
0.1076228335067906
1.900524405190391
2.6699294774881617
0.253809797243367
0.253809797243367
0.253809797243367
0.20013919541231767
0.09992878278381288
0.3999967609799434
0.253809797243367
0.04625818095276354
2.054405419649945
2.9776915064072695
0.253809797243367
0.5615718261624753
0.253809797243367
0.1076228335067906
0.053952231675741244
0.40769081170292115
0.5615718261624753
0.41538486242589884
0.053952231675741244
2.054405419649945
2.8238104919477154
0.253809797243367
0.41538486242589884
0.3999967609799434
0.40769081170292115
0.053952231675741244
0.053952231675741244
0.26150384796634474
0.09992878278381288
0.26150384796634474
1.7466433907308367
3.1392665715898014
0.053952231675741244
0.20013919541231767
0.1076228335067906
0.053952231675741244
0.053952231675741244
2.0620994703729227
3.123878470143846
0.5155952750544036
0.20783324613529539
0.253809797243367
0.8693338550815836
1.330976898460246
0.41538486242589884
1.7466433907308367
2.9776915064072695
0.40769081170292115
0.1076228335067906
0.5615718261624753
0.5615718261624753
0.09992878278381288
0.253809797243367
0.1076228335067906
0.7154528406220294
0.7077587898990517
0.41538486242589884
0.253809797243367
0.5692658768854529
0.5538777754394976
0.5615718261624753
0.41538486242589884
0.09992878278381288
0.253809797243367
0.40769081170292115
0.40769081170292115
0.253809797243367
0.04625818095276354
0.09992878278381288
0.40769081170292115
0.40769081170292115
0.09992878278381288
0.09992878278381288
0.1076228335067906
0.253809797243367
0.7154528406220294
0.09992878278381288
0.053952231675741244
0.04625818095276354
1.9082184559133686
2.9776915064072695
0.41538486242589884
0.09223473206083518
0.20013919541231767
2.054405419649945
2.6699294774881617
0.26150384796634474
0.5615718261624753
0.253809797243367
0.20783324613529539
0.09992878278381288
1.900524405190391
2.9776915064072695
0.253809797243367
0.1076228335067906
0.053952231675741244
0.04625818095276354
0.053952231675741244
0.253809797243367
0.09992878278381288
0.053952231675741244
0.1076228335067906
0.5232893257773813
2.2005923833865215
2.215980484832477
0.20013919541231767
0.09992878278381288
0.053952231675741244
0.09992878278381288
0.26150384796634474
0.7154528406220294
0.09992878278381288
0.09992878278381288
2.054405419649945
2.6699294774881617
0.1076228335067906
0.3999967609799434
0.1076228335067906
0.053952231675741244
0.09992878278381288
0.1076228335067906
0.3999967609799434
0.1076228335067906
0.053952231675741244
1.900524405190391
2.9776915064072695
0.09992878278381288
0.5692658768854529
0.09223473206083518
0.1076228335067906
0.09992878278381288
0.253809797243367
0.253809797243367
0.09992878278381288
0.1076228335067906
0.09223473206083518
2.054405419649945
2.9776915064072695
0.04625818095276354
0.35402020987187177
0.21552729685827307
4.254716173191774
0.5692658768854529
1.2773062966291966
0.21552729685827307
0.053952231675741244
0.1076228335067906
0.5538777754394976
1.585068325548305
2.831504542670693
2.8161164412247377
2.5160484630286075
2.5160484630286075
2.2005923833865215
2.831504542670693
2.2005923833865215
2.831504542670693
1.892830354467413
2.3621674485690534
2.208286434109499
2.8238104919477154
1.900524405190391
2.3621674485690534
2.3621674485690534
2.6699294774881617
2.50835441230563
2.523742513751585
2.2005923833865215
2.5160484630286075
1.292694398075152
2.6699294774881617
1.2773062966291966
2.6699294774881617
1.900524405190391
2.6699294774881617
2.3621674485690534
2.3621674485690534
1.7466433907308367
2.6699294774881617
1.5927623762712826
0.7231468913450071
0.053952231675741244
0.26150384796634474
0.053952231675741244
0.09992878278381288
0.7154528406220294
0.8770279058045612
0.09223473206083518
0.04625818095276354
1.01552081881816
1.6541270288253096
1.169401833277714
1.2773062966291966
2.831504542670693
0.6694762895139578
0.20013919541231767
2.054405419649945
2.6699294774881617
0.20013919541231767
2.0620994703729227
3.1315725208668237
2.50835441230563
2.9776915064072695
2.6699294774881617
2.831504542670693
0.253809797243367
0.26150384796634474
1.7466433907308367
2.9776915064072695
1.892830354467413
2.9776915064072695
2.6776235282111394
2.208286434109499
2.054405419649945
2.8161164412247377
0.5615718261624753
0.5615718261624753
0.26150384796634474
0.253809797243367
0.09992878278381288
0.5615718261624753
0.40769081170292115
0.1076228335067906
0.09223473206083518
1.892830354467413
2.6699294774881617
0.7154528406220294
0.40769081170292115
1.738949340007859
2.831504542670693
0.053952231675741244
2.054405419649945
3.123878470143846
0.253809797243367
0.40769081170292115
0.41538486242589884
0.053952231675741244
2.054405419649945
2.6699294774881617
0.09992878278381288
0.40769081170292115
0.40769081170292115
1.5927623762712826
2.9776915064072695
0.41538486242589884
0.40769081170292115
0.7231468913450071
0.09223473206083518
1.892830354467413
2.6699294774881617
0.09992878278381288
0.5615718261624753
0.253809797243367
0.053952231675741244
1.900524405190391
2.3621674485690534
0.41538486242589884
1.0232148695411376
0.41538486242589884
0.253809797243367
0.40769081170292115
0.5615718261624753
0.40769081170292115
0.253809797243367
0.253809797243367
1.892830354467413
2.3621674485690534
2.6699294774881617
1.9082184559133686
2.3544733978460757
2.208286434109499
2.6699294774881617
1.900524405190391
2.50835441230563
2.3621674485690534
2.3621674485690534
1.2850003473521743
1.0232148695411376
0.40769081170292115
0.26150384796634474
0.3999967609799434
0.35402020987187177
1.6387389273793542
0.053952231675741244
0.253809797243367
0.5615718261624753
0.8770279058045612
0.7077587898990517
0.1076228335067906
0.253809797243367
0.7154528406220294
0.253809797243367
0.253809797243367
0.26150384796634474
0.09992878278381288
0.40769081170292115
0.253809797243367
0.09992878278381288
1.892830354467413
3.1315725208668237
0.2461157465203893
0.253809797243367
0.7231468913450071
0.09992878278381288
1.892830354467413
2.831504542670693
0.253809797243367
0.41538486242589884
0.40769081170292115
0.053952231675741244
0.053952231675741244
2.054405419649945
2.8161164412247377
0.053952231675741244
0.053952231675741244
0.3617142605948495
2.054405419649945
3.1315725208668237
0.35402020987187177
0.20783324613529539
0.09992878278381288
0.20783324613529539
0.20013919541231767
0.3617142605948495
2.215980484832477
2.8161164412247377
0.09992878278381288
0.40769081170292115
0.20783324613529539
2.054405419649945
2.8161164412247377
0.21552729685827307
0.1076228335067906
0.253809797243367
0.053952231675741244
1.738949340007859
2.9776915064072695
0.3617142605948495
2.215980484832477
3.123878470143846
0.253809797243367
0.053952231675741244
0.8770279058045612
0.3999967609799434
0.5692658768854529
0.5155952750544036
2.208286434109499
2.5160484630286075
2.6699294774881617
2.6699294774881617
0.26150384796634474
1.9082184559133686
2.8161164412247377
0.09992878278381288
0.35402020987187177
2.215980484832477
2.6699294774881617
0.35402020987187177
0.253809797243367
0.09992878278381288
0.7154528406220294
1.1847899347236694
1.2850003473521743
2.6699294774881617
0.3617142605948495
0.053952231675741244
2.054405419649945
2.2005923833865215
0.09223473206083518
0.04625818095276354
0.1076228335067906
1.0232148695411376
0.253809797243367
0.3617142605948495
0.1076228335067906
0.3999967609799434
1.3386709491832236
0.40769081170292115
0.40769081170292115
0.8693338550815836
1.0232148695411376
0.5615718261624753
0.04625818095276354
0.40769081170292115
1.0232148695411376
1.0232148695411376
0.1076228335067906
0.3999967609799434
0.5692658768854529
0.5615718261624753
0.41538486242589884
0.3617142605948495
2.054405419649945
2.6699294774881617
0.09992878278381288
0.09992878278381288
0.053952231675741244
1.900524405190391
3.123878470143846
0.053952231675741244
0.053952231675741244
0.40769081170292115
0.09992878278381288
0.26150384796634474
0.253809797243367
0.5615718261624753
0.053952231675741244
0.5155952750544036
0.1076228335067906
0.3999967609799434
0.1076228335067906
0.09992878278381288
0.20783324613529539
0.20783324613529539
2.054405419649945
2.6699294774881617
0.1076228335067906
0.5232893257773813
0.253809797243367
0.04625818095276354
0.253809797243367
0.6694762895139578
0.8693338550815836
0.1076228335067906
0.5615718261624753
1.4848579129198
0.40769081170292115
0.26150384796634474
0.3999967609799434
0.7231468913450071
0.7154528406220294
0.5079012243314259
0.7077587898990517
0.40769081170292115
0.1076228335067906
2.7159060285962333
0.09992878278381288
0.5692658768854529
0.3999967609799434
0.7231468913450071
0.26150384796634474
0.053952231675741244
0.3617142605948495
0.8693338550815836
2.408143999677125
0.253809797243367
0.1076228335067906
0.5538777754394976
1.0309089202641153
0.40769081170292115
0.9849323691560438
1.738949340007859
2.054405419649945
0.5615718261624753
0.253809797243367
0.40769081170292115
0.20013919541231767
0.253809797243367
0.09992878278381288
0.6617822387909801
0.09223473206083518
0.3617142605948495
0.20013919541231767
0.253809797243367
0.8693338550815836
0.09992878278381288
0.053952231675741244
0.253809797243367
1.1847899347236694
1.7926199418389084
0.26150384796634474
0.09223473206083518
0.09992878278381288
0.253809797243367
0.1076228335067906
0.20783324613529539
0.20783324613529539
0.053952231675741244
0.1076228335067906
0.053952231675741244
0.21552729685827307
2.054405419649945
2.9776915064072695
0.1076228335067906
0.253809797243367
0.09992878278381288
0.1076228335067906
0.09992878278381288
0.053952231675741244
0.40769081170292115
0.09992878278381288
0.053952231675741244
0.053952231675741244
0.1076228335067906
0.5155952750544036
0.7154528406220294
0.20783324613529539
0.1076228335067906
0.3999967609799434
0.26150384796634474
0.09992878278381288
0.053952231675741244
0.20783324613529539
0.41538486242589884
0.253809797243367
0.21552729685827307
0.1076228335067906
0.053952231675741244
0.253809797243367
0.26150384796634474
0.21552729685827307
0.053952231675741244
0.20013919541231767
0.09992878278381288
0.09992878278381288
0.20783324613529539
0.20783324613529539
0.20783324613529539
0.053952231675741244
0.253809797243367
0.1076228335067906
0.20783324613529539
0.35402020987187177
0.053952231675741244
0.21552729685827307
0.26150384796634474
0.20783324613529539
0.3617142605948495
0.20783324613529539
0.053952231675741244
0.1076228335067906
0.21552729685827307
0.3617142605948495
0.35402020987187177
0.20783324613529539
0.1076228335067906
0.09223473206083518
0.3617142605948495
0.20013919541231767
0.21552729685827307
0.053952231675741244
0.04625818095276354
0.3617142605948495
0.20783324613529539
0.20013919541231767
0.253809797243367
0.20783324613529539
0.20783324613529539
0.3617142605948495
0.09992878278381288
0.253809797243367
0.253809797243367
0.053952231675741244
0.20013919541231767
0.053952231675741244
0.253809797243367
0.04625818095276354
0.09223473206083518
0.3617142605948495
0.20013919541231767
0.09992878278381288
0.053952231675741244
0.053952231675741244
0.20783324613529539
0.20013919541231767
0.09992878278381288
0.40769081170292115
0.053952231675741244
0.20783324613529539
0.20013919541231767
0.09223473206083518
0.253809797243367
0.41538486242589884
0.053952231675741244
0.053952231675741244
0.09992878278381288
0.5615718261624753
0.26150384796634474
0.053952231675741244
0.09992878278381288
0.04625818095276354
0.09223473206083518
0.053952231675741244
0.3617142605948495
0.20013919541231767
0.09992878278381288
0.40769081170292115
0.5692658768854529
0.053952231675741244
0.253809797243367
0.5538777754394976
0.253809797243367
0.04625818095276354
0.053952231675741244
0.35402020987187177
0.09223473206083518
0.1076228335067906
0.053952231675741244
0.053952231675741244
0.5155952750544036
0.053952231675741244
0.053952231675741244
1.9465009562984625
1.646432978102332
1.0232148695411376
0.20783324613529539
2.208286434109499
2.6699294774881617
0.04625818095276354
0.253809797243367
0.7154528406220294
0.253809797243367
0.09992878278381288
0.20783324613529539
0.3617142605948495
0.5079012243314259
0.3617142605948495
0.09992878278381288
0.5692658768854529
0.5538777754394976
0.1076228335067906
0.21552729685827307
0.04625818095276354
0.09992878278381288
0.40769081170292115
0.5615718261624753
0.253809797243367
0.20013919541231767
0.09223473206083518
0.26150384796634474
0.7231468913450071
0.8693338550815836
0.09223473206083518
0.1076228335067906
0.7154528406220294
0.5615718261624753
0.7154528406220294
0.053952231675741244
0.053952231675741244
0.253809797243367
0.41538486242589884
0.253809797243367
0.04625818095276354
0.09223473206083518
0.1076228335067906
0.40769081170292115
0.053952231675741244
0.20783324613529539
0.20783324613529539
0.1076228335067906
0.253809797243367
0.253809797243367
0.21552729685827307
0.26150384796634474
0.41538486242589884
0.8616398043586059
0.41538486242589884
0.253809797243367
0.5615718261624753
0.5615718261624753
0.5692658768854529
0.5232893257773813
2.2005923833865215
2.523742513751585
0.1076228335067906
0.253809797243367
0.5538777754394976
0.1076228335067906
0.053952231675741244
0.20013919541231767
0.5538777754394976
0.1076228335067906
0.09223473206083518
0.20013919541231767
0.20013919541231767
0.053952231675741244
0.253809797243367
0.09992878278381288
0.09992878278381288
0.09992878278381288
0.20013919541231767
0.21552729685827307
0.5079012243314259
0.053952231675741244
0.21552729685827307
0.053952231675741244
0.3463261591488941
0.21552729685827307
0.053952231675741244
0.1076228335067906
0.053952231675741244
2.054405419649945
2.8238104919477154
0.3617142605948495
0.3617142605948495
0.20783324613529539
0.09992878278381288
0.20013919541231767
0.09992878278381288
0.35402020987187177
0.053952231675741244
0.5232893257773813
0.3617142605948495
2.2005923833865215
3.1392665715898014
0.04625818095276354
0.35402020987187177
0.09223473206083518
0.04625818095276354
0.053952231675741244
0.40769081170292115
1.4848579129198
1.9465009562984625
1.4925519636427778
1.1770958840006918
0.8770279058045612
0.5615718261624753
0.253809797243367
0.053952231675741244
0.053952231675741244
0.5155952750544036
0.3617142605948495
0.20783324613529539
0.20783324613529539
0.20013919541231767
0.5155952750544036
0.053952231675741244
0.8693338550815836
1.7926199418389084
1.0232148695411376
0.1076228335067906
0.053952231675741244
0.053952231675741244
0.053952231675741244
0.253809797243367
0.26150384796634474
0.5615718261624753
0.053952231675741244
0.09223473206083518
0.20013919541231767
0.09992878278381288
0.20783324613529539
0.7154528406220294
0.7231468913450071
1.5927623762712826
2.3621674485690534
2.8238104919477154
3.1315725208668237
2.9776915064072695
0.253809797243367
0.41538486242589884
1.1770958840006918
0.253809797243367
0.26150384796634474
0.09223473206083518
1.900524405190391
2.50835441230563
0.5615718261624753
0.7154528406220294
1.0309089202641153
0.3999967609799434
0.26150384796634474
0.09223473206083518
0.26150384796634474
0.5615718261624753
1.3386709491832236
0.5538777754394976
0.1076228335067906
0.09223473206083518
0.5692658768854529
0.253809797243367
0.1076228335067906
0.053952231675741244
0.09223473206083518
0.7231468913450071
0.5615718261624753
0.26150384796634474
0.053952231675741244
0.21552729685827307
0.1076228335067906
0.253809797243367
0.253809797243367
0.09992878278381288
0.40769081170292115
0.41538486242589884
0.7077587898990517
0.41538486242589884
0.09992878278381288
0.1076228335067906
0.253809797243367
0.253809797243367
0.253809797243367
0.09992878278381288
0.20783324613529539
0.09992878278381288
0.5615718261624753
0.40769081170292115
0.41538486242589884
0.253809797243367
0.09992878278381288
0.253809797243367
0.253809797243367
0.41538486242589884
0.9772383184330661
0.3999967609799434
0.053952231675741244
0.7231468913450071
0.5692658768854529
0.7077587898990517
0.41538486242589884
0.2461157465203893
0.41538486242589884
0.7154528406220294
1.1770958840006918
0.7154528406220294
0.5615718261624753
1.646432978102332
1.9541950070214402
0.5615718261624753
0.40769081170292115
0.7077587898990517
0.1076228335067906
0.253809797243367
0.09223473206083518
0.8770279058045612
1.4388813618117284
2.9776915064072695
0.6771703402369355
0.04625818095276354
0.20783324613529539
0.253809797243367
0.053952231675741244
0.8233573039735119
2.6699294774881617
2.5160484630286075
0.3617142605948495
1.900524405190391
3.1315725208668237
1.900524405190391
1.7466433907308367
1.1770958840006918
1.0232148695411376
0.41538486242589884
0.253809797243367
0.09223473206083518
1.892830354467413
2.9776915064072695
2.3621674485690534
3.477617050171026
0.04625818095276354
0.40769081170292115
1.0232148695411376
1.1770958840006918
0.253809797243367
0.7154528406220294
1.0309089202641153
1.330976898460246
1.330976898460246
0.40769081170292115
0.253809797243367
0.7154528406220294
0.5615718261624753
0.7154528406220294
0.5615718261624753
0.1076228335067906
0.053952231675741244
0.09223473206083518
0.8770279058045612
2.1003819707580167
1.4848579129198
0.8693338550815836
0.40769081170292115
0.40769081170292115
0.5615718261624753
0.40769081170292115
0.5615718261624753
0.253809797243367
0.41538486242589884
0.7154528406220294
0.8693338550815836
0.5615718261624753
0.053952231675741244
0.253809797243367
0.40769081170292115
0.7154528406220294
0.40769081170292115
0.09992878278381288
0.253809797243367
0.253809797243367
0.7231468913450071
0.3999967609799434
0.053952231675741244
0.053952231675741244
0.1076228335067906
0.09223473206083518
0.26150384796634474
0.20783324613529539
0.20783324613529539
0.3617142605948495
0.20783324613529539
0.09992878278381288
0.253809797243367
0.09992878278381288
0.20783324613529539
0.20783324613529539
0.09992878278381288
0.253809797243367
0.5615718261624753
0.053952231675741244
2.054405419649945
2.8161164412247377
0.5232893257773813
0.35402020987187177
0.3617142605948495
0.09992878278381288
0.20783324613529539
2.208286434109499
3.1315725208668237
0.3617142605948495
0.21552729685827307
2.1080760214809944
1.800313992561886
1.01552081881816
0.053952231675741244
0.09992878278381288
0.253809797243367
0.253809797243367
0.41538486242589884
0.253809797243367
0.09992878278381288
0.253809797243367
0.5615718261624753
0.8693338550815836
0.40769081170292115
0.253809797243367
2.054405419649945
2.6699294774881617
0.253809797243367
0.5615718261624753
0.5615718261624753
0.1076228335067906
0.053952231675741244
0.09223473206083518
0.41538486242589884
0.5538777754394976
0.5615718261624753
0.053952231675741244
0.5692658768854529
1.0309089202641153
1.4771638621968224
0.253809797243367
0.253809797243367
0.1076228335067906
0.5615718261624753
0.253809797243367
0.253809797243367
0.09992878278381288
0.253809797243367
0.7077587898990517
0.41538486242589884
0.053952231675741244
0.09992878278381288
0.09992878278381288
0.5692658768854529
0.3999967609799434
0.1076228335067906
0.09992878278381288
0.1076228335067906
0.3999967609799434
0.253809797243367
0.053952231675741244
0.20013919541231767
0.053952231675741244
0.253809797243367
0.7154528406220294
0.053952231675741244
0.1076228335067906
0.09992878278381288
0.3999967609799434
0.41538486242589884
0.09992878278381288
0.20783324613529539
0.09992878278381288
0.41538486242589884
0.09223473206083518
0.04625818095276354
0.09992878278381288
0.09992878278381288
0.41538486242589884
0.253809797243367
0.053952231675741244
0.053952231675741244
0.40769081170292115
0.5615718261624753
0.253809797243367
0.053952231675741244
0.26150384796634474
0.40769081170292115
0.26150384796634474
0.053952231675741244
0.053952231675741244
0.053952231675741244
0.253809797243367
0.40769081170292115
0.1076228335067906
0.053952231675741244
0.21552729685827307
0.253809797243367
0.26150384796634474
0.09992878278381288
0.053952231675741244
0.3617142605948495
0.09992878278381288
0.253809797243367
0.41538486242589884
0.053952231675741244
0.20783324613529539
0.20783324613529539
0.053952231675741244
0.20783324613529539
0.053952231675741244
0.3617142605948495
0.3617142605948495
0.35402020987187177
0.20783324613529539
0.253809797243367
0.41538486242589884
0.053952231675741244
0.20783324613529539
0.053952231675741244
0.20783324613529539
0.09992878278381288
0.3617142605948495
0.1076228335067906
0.21552729685827307
0.3617142605948495
0.1076228335067906
0.40769081170292115
0.253809797243367
0.1076228335067906
0.053952231675741244
1.9082184559133686
2.3621674485690534
0.5692658768854529
0.253809797243367
0.253809797243367
0.5079012243314259
0.253809797243367
0.253809797243367
0.253809797243367
0.053952231675741244
0.3617142605948495
0.04625818095276354
0.3999967609799434
1.0232148695411376
0.5615718261624753
0.1076228335067906
1.900524405190391
3.1315725208668237
0.40769081170292115
0.1076228335067906
0.3617142605948495
0.21552729685827307
0.04625818095276354
0.20783324613529539
0.053952231675741244
0.053952231675741244
0.20013919541231767
0.5232893257773813
0.053952231675741244
0.35402020987187177
0.053952231675741244
0.053952231675741244
0.04625818095276354
0.21552729685827307
2.2005923833865215
3.1392665715898014
0.5079012243314259
0.3617142605948495
0.053952231675741244
0.04625818095276354
0.09223473206083518
0.053952231675741244
0.20013919541231767
0.5615718261624753
0.7154528406220294
0.8770279058045612
1.1770958840006918
0.8693338550815836
0.40769081170292115
0.253809797243367
0.5692658768854529
1.330976898460246
1.646432978102332
1.01552081881816
0.09992878278381288
0.41538486242589884
0.5615718261624753
1.0232148695411376
0.7154528406220294
0.253809797243367
0.1076228335067906
0.21552729685827307
0.26150384796634474
0.8693338550815836
1.800313992561886
1.1770958840006918
0.253809797243367
0.053952231675741244
0.253809797243367
0.7154528406220294
1.330976898460246
0.5692658768854529
0.253809797243367
0.09992878278381288
0.40769081170292115
2.254262985217571
1.800313992561886
0.7154528406220294
0.253809797243367
0.253809797243367
1.6387389273793542
1.800313992561886
0.053952231675741244
1.5927623762712826
2.208286434109499
0.20783324613529539
0.5615718261624753
2.4158380504001027
1.6387389273793542
0.253809797243367
0.253809797243367
0.40769081170292115
1.4848579129198
0.7154528406220294
0.253809797243367
0.04625818095276354
0.5615718261624753
1.1770958840006918
0.09992878278381288
0.253809797243367
0.1076228335067906
0.053952231675741244
0.5615718261624753
0.26150384796634474
0.053952231675741244
0.053952231675741244
0.09223473206083518
0.41538486242589884
0.5615718261624753
0.26150384796634474
0.053952231675741244
0.3999967609799434
0.8770279058045612
1.1770958840006918
0.253809797243367
0.04625818095276354
2.215980484832477
2.3621674485690534
0.253809797243367
0.41538486242589884
0.09992878278381288
0.09992878278381288
0.09992878278381288
0.40769081170292115
1.1770958840006918
0.41538486242589884
0.09992878278381288
0.09992878278381288
0.40769081170292115
0.41538486242589884
0.5538777754394976
0.253809797243367
0.1076228335067906
0.253809797243367
0.5692658768854529
1.3232828477372682
0.26150384796634474
1.9082184559133686
2.6699294774881617
0.1076228335067906
0.5615718261624753
0.5692658768854529
0.3999967609799434
0.1076228335067906
0.09992878278381288
0.40769081170292115
0.5692658768854529
0.8616398043586059
0.1076228335067906
0.253809797243367
1.9082184559133686
2.50835441230563
0.40769081170292115
0.41538486242589884
0.053952231675741244
0.053952231675741244
0.053952231675741244
0.053952231675741244
2.208286434109499
1.5927623762712826
2.8238104919477154
1.892830354467413
2.523742513751585
2.6699294774881617
2.50835441230563
2.054405419649945
0.5538777754394976
1.0309089202641153
0.09992878278381288
1.7466433907308367
2.9776915064072695
0.053952231675741244
0.053952231675741244
0.41538486242589884
0.5692658768854529
0.053952231675741244
0.09223473206083518
0.8156632532505342
1.330976898460246
1.330976898460246
0.09992878278381288
0.26150384796634474
0.21552729685827307
2.054405419649945
2.6699294774881617
1.0309089202641153
1.6387389273793542
0.7154528406220294
0.253809797243367
0.7231468913450071
1.4848579129198
1.6387389273793542
0.5615718261624753
0.41538486242589884
0.7154528406220294
1.1770958840006918
0.7154528406220294
0.253809797243367
0.7231468913450071
1.6387389273793542
1.0232148695411376
0.41538486242589884
0.5538777754394976
0.7231468913450071
0.8693338550815836
0.5615718261624753
0.09992878278381288
0.5615718261624753
1.1847899347236694
0.8693338550815836
0.253809797243367
0.09992878278381288
0.5615718261624753
0.40769081170292115
0.7231468913450071
0.09223473206083518
0.41538486242589884
0.40769081170292115
1.0232148695411376
0.5615718261624753
0.1076228335067906
0.253809797243367
0.40769081170292115
1.1770958840006918
0.8770279058045612
0.3999967609799434
0.253809797243367
0.7231468913450071
1.330976898460246
0.7154528406220294
0.1076228335067906
0.3999967609799434
0.5692658768854529
1.4848579129198
0.8770279058045612
0.5615718261624753
0.7154528406220294
0.1076228335067906
0.253809797243367
0.053952231675741244
0.7154528406220294
0.1076228335067906
0.5232893257773813
2.3621674485690534
2.3621674485690534
0.20783324613529539
0.09992878278381288
0.253809797243367
0.053952231675741244
2.054405419649945
2.6699294774881617
2.50835441230563
2.054405419649945
0.7154528406220294
0.20783324613529539
2.254262985217571
0.253809797243367
0.40769081170292115
0.41538486242589884
0.5538777754394976
0.41538486242589884
0.253809797243367
0.09223473206083518
0.41538486242589884
1.1770958840006918
0.8693338550815836
0.40769081170292115
0.253809797243367
0.40769081170292115
0.41538486242589884
0.21552729685827307
1.330976898460246
0.09992878278381288
0.40769081170292115
0.8693338550815836
0.41538486242589884
0.8310513546964896
1.2773062966291966
2.6699294774881617
0.5615718261624753
0.2461157465203893
0.41538486242589884
0.053952231675741244
0.253809797243367
0.253809797243367
0.40769081170292115
0.09992878278381288
1.5927623762712826
2.9776915064072695
0.3617142605948495
0.253809797243367
0.253809797243367
0.5615718261624753
0.253809797243367
0.1076228335067906
0.3999967609799434
0.8770279058045612
0.5615718261624753
0.09223473206083518
1.892830354467413
2.9776915064072695
0.253809797243367
0.09992878278381288
0.40769081170292115
0.09992878278381288
0.09992878278381288
0.253809797243367
0.40769081170292115
0.41538486242589884
0.09223473206083518
0.253809797243367
0.09992878278381288
0.7231468913450071
0.3999967609799434
0.1076228335067906
0.053952231675741244
0.053952231675741244
0.253809797243367
0.253809797243367
0.053952231675741244
0.053952231675741244
0.3617142605948495
0.053952231675741244
0.20783324613529539
0.5155952750544036
0.1076228335067906
0.21552729685827307
0.3617142605948495
0.3617142605948495
0.20013919541231767
0.8233573039735119
1.9082184559133686
2.8161164412247377
2.523742513751585
2.6699294774881617
2.50835441230563
2.9776915064072695
0.8310513546964896
2.2005923833865215
2.6776235282111394
0.09992878278381288
2.054405419649945
2.6699294774881617
0.41538486242589884
0.5615718261624753
0.40769081170292115
0.053952231675741244
0.053952231675741244
0.053952231675741244
0.3617142605948495
0.5615718261624753
0.20013919541231767
0.21552729685827307
0.20013919541231767
2.054405419649945
2.3621674485690534
2.6699294774881617
2.215980484832477
0.253809797243367
0.1076228335067906
1.7466433907308367
2.8238104919477154
0.40769081170292115
0.253809797243367
0.26150384796634474
0.5615718261624753
0.3999967609799434
0.09992878278381288
1.892830354467413
2.3621674485690534
0.053952231675741244
0.5615718261624753
0.7154528406220294
0.8693338550815836
0.7154528406220294
0.253809797243367
1.7466433907308367
2.9776915064072695
0.20013919541231767
0.09223473206083518
0.41538486242589884
0.09992878278381288
0.053952231675741244
0.053952231675741244
0.5615718261624753
1.0309089202641153
0.40769081170292115
0.253809797243367
0.253809797243367
0.5692658768854529
0.7077587898990517
0.26150384796634474
0.20783324613529539
0.20783324613529539
0.5615718261624753
0.5615718261624753
0.35402020987187177
2.054405419649945
2.6699294774881617
0.5615718261624753
1.1770958840006918
0.5155952750544036
1.3386709491832236
0.253809797243367
0.7154528406220294
1.6387389273793542
0.7231468913450071
0.09223473206083518
0.5692658768854529
0.7077587898990517
1.0309089202641153
0.26150384796634474
0.253809797243367
0.40769081170292115
0.8693338550815836
0.7154528406220294
0.09992878278381288
1.900524405190391
2.8161164412247377
0.253809797243367
0.7154528406220294
0.3999967609799434
0.41538486242589884
0.40769081170292115
0.5615718261624753
0.8693338550815836
0.5692658768854529
1.4388813618117284
2.831504542670693
0.1076228335067906
0.6694762895139578
2.1080760214809944
0.8616398043586059
0.8693338550815836
0.5692658768854529
1.1770958840006918
1.0232148695411376
0.5615718261624753
0.253809797243367
0.1076228335067906
0.09992878278381288
0.053952231675741244
0.41538486242589884
0.053952231675741244
0.253809797243367
0.7154528406220294
1.7926199418389084
1.1770958840006918
0.41538486242589884
1.0232148695411376
1.3232828477372682
0.8770279058045612
0.5615718261624753
0.253809797243367
0.5692658768854529
0.5615718261624753
0.253809797243367
0.3617142605948495
2.208286434109499
2.5160484630286075
0.253809797243367
0.8770279058045612
0.40769081170292115
0.053952231675741244
0.253809797243367
0.8693338550815836
1.0232148695411376
0.253809797243367
0.26150384796634474
1.4848579129198
1.800313992561886
0.5615718261624753
0.40769081170292115
1.9082184559133686
1.892830354467413
1.1770958840006918
1.1770958840006918
0.5615718261624753
0.8770279058045612
1.1770958840006918
1.0232148695411376
0.5615718261624753
0.253809797243367
0.7154528406220294
1.646432978102332
1.1770958840006918
0.5615718261624753
0.253809797243367
0.41538486242589884
0.40769081170292115
0.40769081170292115
0.5615718261624753
0.40769081170292115
0.3617142605948495
2.054405419649945
1.1847899347236694
0.253809797243367
2.054405419649945
2.0620994703729227
0.04625818095276354
0.04625818095276354
0.09223473206083518
0.40769081170292115
1.7466433907308367
0.41538486242589884
0.5615718261624753
0.04625818095276354
0.09223473206083518
0.1076228335067906
0.40769081170292115
0.20783324613529539
0.09992878278381288
0.1076228335067906
0.5615718261624753
0.5615718261624753
0.5538777754394976
0.20013919541231767
0.40769081170292115
0.09992878278381288
0.09992878278381288
0.41538486242589884
0.253809797243367
0.253809797243367
0.053952231675741244
0.09992878278381288
0.253809797243367
1.1234252821696424
2.5160484630286075
0.7154528406220294
0.253809797243367
0.053952231675741244
1.900524405190391
2.6699294774881617
0.1076228335067906
0.3999967609799434
0.41538486242589884
0.26150384796634474
0.09223473206083518
0.253809797243367
0.7154528406220294
0.8770279058045612
0.40769081170292115
0.253809797243367
1.900524405190391
2.3621674485690534
0.5692658768854529
0.5615718261624753
0.053952231675741244
2.054405419649945
2.5160484630286075
0.053952231675741244
0.40769081170292115
0.5692658768854529
0.253809797243367
0.09992878278381288
0.09992878278381288
0.40769081170292115
0.5615718261624753
0.5692658768854529
0.09223473206083518
0.1076228335067906
0.253809797243367
0.5692658768854529
0.3999967609799434
0.053952231675741244
2.054405419649945
2.6622354267651835
0.09992878278381288
0.40769081170292115
0.5615718261624753
0.1076228335067906
0.09223473206083518
0.26150384796634474
0.40769081170292115
0.40769081170292115
0.053952231675741244
0.40769081170292115
0.41538486242589884
0.5615718261624753
0.40769081170292115
0.09992878278381288
1.738949340007859
2.9853855571302472
0.09992878278381288
0.5615718261624753
0.26150384796634474
0.253809797243367
0.253809797243367
0.40769081170292115
1.646432978102332
0.7154528406220294
0.09223473206083518
0.26150384796634474
0.40769081170292115
0.5692658768854529
0.3999967609799434
0.253809797243367
0.20013919541231767
2.054405419649945
2.9776915064072695
0.09992878278381288
0.09992878278381288
0.5692658768854529
0.09223473206083518
0.20013919541231767
0.09992878278381288
0.053952231675741244
0.253809797243367
0.5615718261624753
0.26150384796634474
0.09992878278381288
0.26150384796634474
0.8616398043586059
0.5615718261624753
0.5692658768854529
0.053952231675741244
0.253809797243367
0.253809797243367
0.5615718261624753
0.5692658768854529
0.3999967609799434
0.1076228335067906
0.5615718261624753
0.7154528406220294
0.7231468913450071
0.8616398043586059
0.1076228335067906
0.053952231675741244
0.09992878278381288
0.053952231675741244
0.09992878278381288
0.09992878278381288
1.7466433907308367
1.2773062966291966
2.3621674485690534
1.2850003473521743
0.40769081170292115
0.5615718261624753
1.0232148695411376
0.8770279058045612
0.40769081170292115
0.26150384796634474
0.7077587898990517
1.4925519636427778
0.5615718261624753
0.253809797243367
0.26150384796634474
0.5615718261624753
0.5538777754394976
0.41538486242589884
0.40769081170292115
0.8693338550815836
0.5615718261624753
0.5692658768854529
0.09223473206083518
0.1076228335067906
0.40769081170292115
0.7154528406220294
0.04625818095276354
0.3999967609799434
0.26150384796634474
0.253809797243367
0.8693338550815836
0.09992878278381288
0.253809797243367
0.1076228335067906
1.9082184559133686
2.2005923833865215
0.40769081170292115
0.253809797243367
0.253809797243367
0.41538486242589884
0.7154528406220294
0.053952231675741244
0.053952231675741244
0.053952231675741244
0.253809797243367
0.253809797243367
0.26150384796634474
0.21552729685827307
0.1076228335067906
1.2850003473521743
2.6699294774881617
0.053952231675741244
0.20783324613529539
0.053952231675741244
0.09992878278381288
0.1076228335067906
0.09992878278381288
0.053952231675741244
0.053952231675741244
0.053952231675741244
0.04625818095276354
0.7154528406220294
0.09992878278381288
0.253809797243367
0.20013919541231767
0.053952231675741244
1.0232148695411376
0.20013919541231767
1.9082184559133686
2.2005923833865215
1.330976898460246
1.6387389273793542
1.3386709491832236
1.01552081881816
0.7154528406220294
0.3617142605948495
0.7231468913450071
0.253809797243367
1.330976898460246
1.01552081881816
0.7231468913450071
1.4465754125347061
2.9776915064072695
0.5615718261624753
0.253809797243367
0.5692658768854529
0.253809797243367
0.5615718261624753
0.1076228335067906
0.053952231675741244
0.3999967609799434
0.253809797243367
0.40769081170292115
0.1076228335067906
1.9082184559133686
2.50835441230563
0.8233573039735119
2.3621674485690534
2.9776915064072695
0.5232893257773813
2.2005923833865215
2.9776915064072695
0.09223473206083518
1.3386709491832236
1.6387389273793542
0.40769081170292115
0.40769081170292115
1.0232148695411376
1.800313992561886
1.6387389273793542
1.4771638621968224
0.7231468913450071
0.09223473206083518
0.253809797243367
0.26150384796634474
0.40769081170292115
0.5692658768854529
0.3999967609799434
0.1076228335067906
0.053952231675741244
0.053952231675741244
2.054405419649945
2.9776915064072695
0.3999967609799434
1.0232148695411376
1.3386709491832236
0.8616398043586059
0.253809797243367
0.1076228335067906
0.053952231675741244
2.054405419649945
2.3621674485690534
0.3999967609799434
0.5692658768854529
0.5615718261624753
0.053952231675741244
0.253809797243367
0.5615718261624753
0.7154528406220294
0.8770279058045612
0.253809797243367
0.1076228335067906
0.253809797243367
0.5615718261624753
0.7154528406220294
0.5615718261624753
0.09992878278381288
0.053952231675741244
0.09992878278381288
0.09992878278381288
0.253809797243367
0.41538486242589884
0.09992878278381288
0.053952231675741244
0.053952231675741244
0.053952231675741244
0.7231468913450071
0.8616398043586059
0.7231468913450071
0.09992878278381288
0.053952231675741244
0.053952231675741244
0.253809797243367
0.253809797243367
0.1076228335067906
1.7466433907308367
3.1315725208668237
0.20783324613529539
0.20783324613529539
0.253809797243367
0.5615718261624753
0.7231468913450071
0.053952231675741244
1.900524405190391
2.9776915064072695
0.1076228335067906
0.09223473206083518
0.5692658768854529
0.5615718261624753
0.253809797243367
0.053952231675741244
1.900524405190391
2.969997455684292
0.053952231675741244
0.09992878278381288
0.7154528406220294
0.5615718261624753
0.5615718261624753
0.053952231675741244
0.1076228335067906
0.7154528406220294
1.1770958840006918
0.8770279058045612
0.253809797243367
0.09223473206083518
0.04625818095276354
0.7154528406220294
0.7154528406220294
0.8770279058045612
0.3999967609799434
0.253809797243367
1.892830354467413
2.9776915064072695
0.253809797243367
0.40769081170292115
1.0232148695411376
0.40769081170292115
0.09992878278381288
0.253809797243367
0.5692658768854529
1.1770958840006918
0.8693338550815836
0.26150384796634474
0.3999967609799434
0.7231468913450071
1.0232148695411376
0.5615718261624753
0.26150384796634474
0.253809797243367
0.253809797243367
0.7154528406220294
0.5615718261624753
0.253809797243367
0.253809797243367
0.26150384796634474
0.253809797243367
1.7466433907308367
0.8233573039735119
0.8693338550815836
0.253809797243367
0.1076228335067906
0.053952231675741244
0.253809797243367
0.40769081170292115
1.0309089202641153
0.2461157465203893
0.253809797243367
0.1076228335067906
0.09992878278381288
0.40769081170292115
0.5692658768854529
0.7077587898990517
1.1234252821696424
2.6699294774881617
0.6694762895139578
0.053952231675741244
0.41538486242589884
0.8616398043586059
0.5615718261624753
0.1076228335067906
0.09223473206083518
0.26150384796634474
0.7154528406220294
1.1770958840006918
0.7231468913450071
0.09223473206083518
0.253809797243367
0.5692658768854529
0.7231468913450071
0.5538777754394976
0.253809797243367
0.253809797243367
0.253809797243367
0.8770279058045612
0.8693338550815836
0.40769081170292115
0.1076228335067906
0.3999967609799434
0.5692658768854529
1.0232148695411376
1.0232148695411376
0.09992878278381288
0.253809797243367
0.253809797243367
0.41538486242589884
0.5692658768854529
0.253809797243367
0.053952231675741244
0.09223473206083518
0.26150384796634474
1.01552081881816
0.7231468913450071
0.40769081170292115
0.7231468913450071
1.169401833277714
0.7231468913450071
0.40769081170292115
0.5615718261624753
0.053952231675741244
0.26150384796634474
0.253809797243367
0.09223473206083518
0.1076228335067906
0.09992878278381288
0.8693338550815836
2.4158380504001027
1.4848579129198
0.8693338550815836
0.40769081170292115
1.0232148695411376
1.9465009562984625
1.800313992561886
0.7154528406220294
0.253809797243367
0.7231468913450071
1.9465009562984625
1.7849258911159307
1.3463649999062013
0.5615718261624753
0.21552729685827307
2.054405419649945
2.50835441230563
0.253809797243367
2.408143999677125
2.562025014136679
2.1080760214809944
1.330976898460246
0.3999967609799434
0.5692658768854529
0.8693338550815836
1.0232148695411376
0.8693338550815836
0.1076228335067906
0.7154528406220294
0.7154528406220294
1.0309089202641153
0.7077587898990517
0.26150384796634474
0.253809797243367
0.41538486242589884
0.8616398043586059
0.41538486242589884
0.09223473206083518
0.26150384796634474
1.0309089202641153
0.7077587898990517
0.5692658768854529
0.253809797243367
1.9082184559133686
1.892830354467413
1.6387389273793542
1.1847899347236694
0.5538777754394976
0.41538486242589884
1.3232828477372682
1.646432978102332
1.4848579129198
0.7154528406220294
0.7231468913450071
1.6387389273793542
2.1003819707580167
1.646432978102332
0.7077587898990517
1.4925519636427778
1.9465009562984625
1.4848579129198
0.40769081170292115
1.7466433907308367
2.208286434109499
1.646432978102332
1.6387389273793542
0.8693338550815836
1.330976898460246
1.800313992561886
1.330976898460246
0.053952231675741244
1.900524405190391
1.5927623762712826
1.4848579129198
1.6387389273793542
0.7231468913450071
0.7154528406220294
1.0309089202641153
1.330976898460246
0.8693338550815836
0.253809797243367
1.0232148695411376
1.330976898460246
0.8693338550815836
0.40769081170292115
0.7231468913450071
1.7849258911159307
1.3386709491832236
0.5692658768854529
0.5538777754394976
1.0309089202641153
1.1770958840006918
0.253809797243367
0.40769081170292115
1.330976898460246
1.330976898460246
0.7231468913450071
0.5615718261624753
1.1847899347236694
0.09223473206083518
2.569719064859657
0.09992878278381288
0.253809797243367
0.8693338550815836
1.4848579129198
0.8770279058045612
0.5615718261624753
0.7154528406220294
1.330976898460246
1.1770958840006918
0.7231468913450071
0.5538777754394976
1.0309089202641153
1.4848579129198
1.3386709491832236
0.5615718261624753
1.0232148695411376
1.1770958840006918
0.7154528406220294
0.41538486242589884
0.21552729685827307
0.41538486242589884
1.0232148695411376
2.562025014136679
1.1847899347236694
0.40769081170292115
0.7077587898990517
1.646432978102332
1.9541950070214402
1.4771638621968224
0.5615718261624753
1.4925519636427778
1.6387389273793542
1.1770958840006918
0.40769081170292115
0.7231468913450071
1.1770958840006918
1.1770958840006918
0.5615718261624753
0.41538486242589884
0.8693338550815836
1.4848579129198
1.3386709491832236
0.7077587898990517
0.26150384796634474
1.7466433907308367
2.215980484832477
0.8770279058045612
1.1770958840006918
0.40769081170292115
0.41538486242589884
0.5615718261624753
0.8616398043586059
1.0309089202641153
0.40769081170292115
0.7231468913450071
2.254262985217571
1.9465009562984625
1.0232148695411376
1.0232148695411376
1.4848579129198
1.6387389273793542
0.7231468913450071
0.40769081170292115
0.8693338550815836
1.6387389273793542
1.0232148695411376
0.41538486242589884
0.253809797243367
0.5615718261624753
1.0232148695411376
1.9465009562984625
0.8770279058045612
0.253809797243367
1.7926199418389084
1.646432978102332
1.1770958840006918
0.40769081170292115
0.7077587898990517
1.1847899347236694
1.4848579129198
0.8770279058045612
0.40769081170292115
0.8693338550815836
1.4848579129198
0.7154528406220294
0.40769081170292115
1.7466433907308367
3.1315725208668237
0.04625818095276354
0.3999967609799434
0.7231468913450071
0.5692658768854529
0.253809797243367
0.21552729685827307
0.1076228335067906
0.20783324613529539
0.09992878278381288
0.09992878278381288
0.253809797243367
0.3617142605948495
2.054405419649945
3.123878470143846
0.3617142605948495
0.3617142605948495
0.20783324613529539
0.35402020987187177
0.3617142605948495
0.5232893257773813
0.053952231675741244
0.6617822387909801
0.3617142605948495
0.6694762895139578
0.40769081170292115
0.3617142605948495
0.253809797243367
0.5615718261624753
0.7154528406220294
0.253809797243367
0.053952231675741244
0.053952231675741244
0.41538486242589884
1.0232148695411376
1.4848579129198
0.5615718261624753
0.053952231675741244
0.09992878278381288
0.253809797243367
0.09992878278381288
0.40769081170292115
0.41538486242589884
0.5232893257773813
0.053952231675741244
0.053952231675741244
0.253809797243367
0.7231468913450071
1.0232148695411376
0.3999967609799434
0.1076228335067906
0.09992878278381288
0.5615718261624753
1.0309089202641153
0.8616398043586059
0.40769081170292115
0.09992878278381288
0.41538486242589884
1.0232148695411376
0.8693338550815836
0.253809797243367
0.09223473206083518
0.41538486242589884
0.5615718261624753
0.7154528406220294
0.5615718261624753
0.40769081170292115
0.09992878278381288
0.8770279058045612
1.1770958840006918
0.7154528406220294
0.3999967609799434
0.253809797243367
0.7231468913450071
1.4848579129198
0.7154528406220294
0.253809797243367
0.40769081170292115
0.7231468913450071
1.169401833277714
0.5615718261624753
0.41538486242589884
0.253809797243367
0.5538777754394976
0.5615718261624753
0.253809797243367
0.04625818095276354
0.253809797243367
0.8693338550815836
2.1003819707580167
0.8770279058045612
0.253809797243367
0.253809797243367
1.7543374414538144
2.054405419649945
1.1770958840006918
0.41538486242589884
0.09992878278381288
0.7077587898990517
1.1847899347236694
0.8693338550815836
0.09223473206083518
0.253809797243367
0.26150384796634474
0.5615718261624753
0.7154528406220294
0.09992878278381288
0.053952231675741244
0.1076228335067906
0.3999967609799434
0.5692658768854529
0.09992878278381288
0.053952231675741244
0.053952231675741244
0.40769081170292115
0.7077587898990517
0.7231468913450071
0.09992878278381288
0.7231468913450071
1.3232828477372682
1.6387389273793542
0.5692658768854529
0.253809797243367
0.3999967609799434
1.1847899347236694
1.1770958840006918
0.3999967609799434
0.26150384796634474
0.8693338550815836
1.4848579129198
0.8770279058045612
0.253809797243367
0.5615718261624753
0.8616398043586059
0.7231468913450071
0.5615718261624753
0.053952231675741244
0.253809797243367
0.253809797243367
0.253809797243367
0.26150384796634474
0.09223473206083518
0.1076228335067906
0.5538777754394976
0.8693338550815836
0.8770279058045612
0.253809797243367
0.053952231675741244
0.053952231675741244
0.1076228335067906
0.253809797243367
0.09223473206083518
0.20013919541231767
0.20783324613529539
0.09992878278381288
0.40769081170292115
0.5615718261624753
0.1076228335067906
0.09992878278381288
0.5615718261624753
1.0232148695411376
1.0309089202641153
0.40769081170292115
0.3999967609799434
0.41538486242589884
1.0232148695411376
0.7231468913450071
0.2461157465203893
0.41538486242589884
0.3999967609799434
0.8770279058045612
0.5615718261624753
0.1076228335067906
0.09223473206083518
0.41538486242589884
2.254262985217571
2.2619570359405485
0.8616398043586059
0.8693338550815836
1.6387389273793542
1.3386709491832236
0.5615718261624753
0.26150384796634474
0.8616398043586059
1.4925519636427778
1.1770958840006918
0.09992878278381288
1.900524405190391
2.3621674485690534
1.4925519636427778
1.0232148695411376
0.7154528406220294
0.09992878278381288
0.253809797243367
1.6387389273793542
2.569719064859657
1.7926199418389084
0.8693338550815836
1.9465009562984625
2.4158380504001027
1.4848579129198
0.7154528406220294
0.5615718261624753
2.1080760214809944
1.6387389273793542
0.09223473206083518
1.892830354467413
2.3621674485690534
0.7154528406220294
1.800313992561886
1.4771638621968224
0.41538486242589884
0.7077587898990517
0.7231468913450071
1.330976898460246
0.7154528406220294
0.253809797243367
0.41538486242589884
0.8693338550815836
1.0309089202641153
0.5615718261624753
0.253809797243367
0.253809797243367
0.8693338550815836
1.3386709491832236
0.053952231675741244
1.9082184559133686
2.2005923833865215
2.054405419649945
2.523742513751585
1.1847899347236694
1.0232148695411376
0.6694762895139578
1.1770958840006918
0.8770279058045612
1.4848579129198
0.5692658768854529
0.09223473206083518
0.40769081170292115
0.5615718261624753
1.0309089202641153
0.8770279058045612
0.2461157465203893
0.1076228335067906
0.7077587898990517
1.1847899347236694
0.8693338550815836
0.09992878278381288
0.41538486242589884
0.9849323691560438
1.2850003473521743
2.2005923833865215
1.0232148695411376
0.253809797243367
0.1076228335067906
0.21552729685827307
0.1076228335067906
0.09223473206083518
0.7231468913450071
1.0232148695411376
0.40769081170292115
0.053952231675741244
1.892830354467413
2.831504542670693
0.053952231675741244
0.41538486242589884
0.7154528406220294
0.1076228335067906
2.054405419649945
2.9776915064072695
0.09223473206083518
0.26150384796634474
1.01552081881816
0.8770279058045612
0.1076228335067906
0.09223473206083518
0.253809797243367
0.7231468913450071
0.7154528406220294
0.7154528406220294
0.053952231675741244
0.253809797243367
0.253809797243367
0.5692658768854529
1.0309089202641153
0.7077587898990517
0.04625818095276354
1.7466433907308367
2.831504542670693
0.41538486242589884
0.5615718261624753
0.8770279058045612
0.053952231675741244
0.09223473206083518
0.253809797243367
0.7154528406220294
0.5692658768854529
0.40769081170292115
0.09992878278381288
1.892830354467413
2.831504542670693
0.253809797243367
0.7231468913450071
1.169401833277714
0.8770279058045612
0.1076228335067906
0.3999967609799434
0.7154528406220294
1.0309089202641153
0.5615718261624753
0.40769081170292115
0.1076228335067906
2.054405419649945
2.0620994703729227
1.646432978102332
1.330976898460246
0.253809797243367
0.7154528406220294
0.7231468913450071
0.7154528406220294
0.7077587898990517
0.053952231675741244
0.1076228335067906
2.054405419649945
2.9776915064072695
0.5079012243314259
2.3621674485690534
2.9776915064072695
0.3617142605948495
0.053952231675741244
1.5927623762712826
1.1311193328926201
0.8156632532505342
2.523742513751585
2.2005923833865215
2.831504542670693
2.6699294774881617
2.6699294774881617
3.123878470143846
2.9776915064072695
2.9776915064072695
1.900524405190391
3.1315725208668237
2.9776915064072695
2.9776915064072695
2.969997455684292
1.5927623762712826
1.9082184559133686
2.50835441230563
2.3621674485690534
1.900524405190391
2.9853855571302472
1.585068325548305
2.8238104919477154
2.054405419649945
2.9776915064072695
1.892830354467413
2.9776915064072695
1.7466433907308367
0.40769081170292115
0.8693338550815836
0.253809797243367
1.738949340007859
2.831504542670693
2.50835441230563
2.054405419649945
1.0232148695411376
1.0232148695411376
0.253809797243367
0.41538486242589884
0.09223473206083518
0.8770279058045612
0.5615718261624753
0.053952231675741244
1.892830354467413
2.6699294774881617
0.253809797243367
0.8616398043586059
0.5692658768854529
1.4388813618117284
2.8161164412247377
0.09223473206083518
0.1076228335067906
0.7154528406220294
0.7154528406220294
0.253809797243367
0.253809797243367
0.1076228335067906
1.1770958840006918
0.40769081170292115
1.1311193328926201
2.8238104919477154
0.5155952750544036
0.26150384796634474
1.01552081881816
0.41538486242589884
0.5155952750544036
1.1770958840006918
0.41538486242589884
1.0232148695411376
0.253809797243367
0.253809797243367
0.253809797243367
0.5692658768854529
0.7077587898990517
0.26150384796634474
0.253809797243367
1.9082184559133686
2.9776915064072695
2.6622354267651835
2.6699294774881617
0.40769081170292115
0.40769081170292115
0.253809797243367
1.892830354467413
2.831504542670693
0.1076228335067906
0.053952231675741244
1.0232148695411376
0.7231468913450071
0.09992878278381288
1.900524405190391
2.969997455684292
0.053952231675741244
0.09223473206083518
0.26150384796634474
0.09992878278381288
2.0467113689269674
2.831504542670693
0.20013919541231767
0.053952231675741244
0.40769081170292115
0.8693338550815836
0.253809797243367
0.20013919541231767
2.215980484832477
2.208286434109499
0.5615718261624753
1.0309089202641153
0.7154528406220294
0.053952231675741244
2.054405419649945
2.208286434109499
0.5615718261624753
0.8770279058045612
0.09992878278381288
0.40769081170292115
0.5615718261624753
0.7154528406220294
0.7231468913450071
0.253809797243367
0.053952231675741244
0.40769081170292115
0.5615718261624753
0.8770279058045612
0.3999967609799434
0.1076228335067906
0.40769081170292115
0.5615718261624753
1.0309089202641153
0.253809797243367
0.09992878278381288
0.7154528406220294
0.7154528406220294
1.1847899347236694
0.2461157465203893
0.7231468913450071
0.7154528406220294
1.1770958840006918
0.7154528406220294
0.253809797243367
0.253809797243367
0.253809797243367
0.8770279058045612
0.253809797243367
0.41538486242589884
0.21552729685827307
0.41538486242589884
0.8616398043586059
1.0309089202641153
0.40769081170292115
0.053952231675741244
0.41538486242589884
0.253809797243367
0.7154528406220294
0.7154528406220294
1.9082184559133686
2.8161164412247377
0.5232893257773813
0.6694762895139578
2.054405419649945
2.9776915064072695
0.5155952750544036
2.054405419649945
2.9776915064072695
0.5079012243314259
0.6694762895139578
0.5232893257773813
0.6617822387909801
2.208286434109499
2.9853855571302472
2.054405419649945
2.8161164412247377
2.3621674485690534
1.7466433907308367
2.6699294774881617
1.4465754125347061
2.6699294774881617
1.892830354467413
2.6699294774881617
2.215980484832477
2.6699294774881617
1.892830354467413
0.5615718261624753
0.5615718261624753
1.0232148695411376
0.09992878278381288
0.253809797243367
0.7231468913450071
1.0232148695411376
1.1770958840006918
0.21552729685827307
2.054405419649945
1.738949340007859
0.5615718261624753
1.0232148695411376
0.8693338550815836
0.053952231675741244
0.253809797243367
0.09992878278381288
0.7154528406220294
0.8693338550815836
0.5692658768854529
0.8693338550815836
1.169401833277714
1.4925519636427778
1.330976898460246
0.40769081170292115
0.8693338550815836
1.330976898460246
1.0232148695411376
0.5615718261624753
0.053952231675741244
0.253809797243367
0.5692658768854529
1.1770958840006918
0.5615718261624753
0.7154528406220294
1.7926199418389084
1.9465009562984625
1.0232148695411376
0.253809797243367
0.8770279058045612
1.1770958840006918
1.1770958840006918
0.5538777754394976
0.7231468913450071
1.6387389273793542
1.6387389273793542
0.7231468913450071
0.5538777754394976
0.7154528406220294
0.8770279058045612
0.3999967609799434
0.053952231675741244
0.41538486242589884
0.5538777754394976
2.254262985217571
0.8693338550815836
0.1076228335067906
0.40769081170292115
0.09992878278381288
1.9465009562984625
0.8770279058045612
0.053952231675741244
0.253809797243367
0.3617142605948495
2.215980484832477
2.9776915064072695
0.053952231675741244
0.20013919541231767
0.3694083113178272
0.04625818095276354
0.09992878278381288
0.5155952750544036
1.6004564269942603
2.969997455684292
2.831504542670693
2.50835441230563
3.1392665715898014
2.9776915064072695
2.2005923833865215
2.215980484832477
2.8161164412247377
2.3621674485690534
2.6699294774881617
2.6699294774881617
2.9853855571302472
0.9772383184330661
2.50835441230563
2.523742513751585
2.6622354267651835
2.3621674485690534
2.831504542670693
2.0467113689269674
0.3999967609799434
0.8770279058045612
0.8693338550815836
0.7231468913450071
1.01552081881816
1.0232148695411376
0.7231468913450071
0.053952231675741244
0.40769081170292115
0.253809797243367
0.8693338550815836
0.8693338550815836
0.053952231675741244
2.054405419649945
2.3621674485690534
0.5538777754394976
0.8770279058045612
0.5615718261624753
0.1076228335067906
0.253809797243367
0.3999967609799434
0.5615718261624753
0.09992878278381288
0.1076228335067906
1.9082184559133686
2.9776915064072695
0.253809797243367
1.0309089202641153
0.5615718261624753
0.053952231675741244
0.8770279058045612
0.8616398043586059
1.0309089202641153
0.253809797243367
0.053952231675741244
0.09992878278381288
0.09992878278381288
0.40769081170292115
0.253809797243367
0.20013919541231767
0.253809797243367
0.40769081170292115
0.5615718261624753
0.40769081170292115
0.20783324613529539
2.0467113689269674
2.523742513751585
0.053952231675741244
0.1076228335067906
0.053952231675741244
0.053952231675741244
0.6694762895139578
0.20013919541231767
0.21552729685827307
0.1076228335067906
0.40769081170292115
0.053952231675741244
0.41538486242589884
0.7154528406220294
1.01552081881816
0.5692658768854529
0.09992878278381288
0.09992878278381288
0.41538486242589884
0.253809797243367
0.253809797243367
0.09992878278381288
2.054405419649945
2.6699294774881617
0.40769081170292115
0.41538486242589884
0.7077587898990517
0.253809797243367
0.41538486242589884
0.8693338550815836
1.4848579129198
0.41538486242589884
0.8616398043586059
0.5615718261624753
0.7231468913450071
0.7154528406220294
0.053952231675741244
0.053952231675741244
0.1076228335067906
0.8693338550815836
1.0232148695411376
0.053952231675741244
1.738949340007859
2.9853855571302472
2.5160484630286075
2.50835441230563
0.5155952750544036
2.0620994703729227
0.26150384796634474
1.1311193328926201
2.6699294774881617
0.41538486242589884
1.7466433907308367
2.9776915064072695
2.831504542670693
1.738949340007859
2.6699294774881617
1.6004564269942603
0.41538486242589884
0.20783324613529539
0.1076228335067906
0.09223473206083518
0.41538486242589884
0.40769081170292115
0.1076228335067906
0.21552729685827307
0.41538486242589884
0.7154528406220294
0.7231468913450071
0.9849323691560438
1.738949340007859
2.054405419649945
2.523742513751585
2.3621674485690534
0.5692658768854529
0.3999967609799434
0.26150384796634474
0.20783324613529539
0.26150384796634474
0.253809797243367
0.253809797243367
0.053952231675741244
0.09992878278381288
0.1076228335067906
0.5615718261624753
0.5615718261624753
0.09992878278381288
0.253809797243367
1.0232148695411376
0.5615718261624753
0.1076228335067906
0.09992878278381288
0.5615718261624753
0.8693338550815836
0.41538486242589884
0.053952231675741244
0.40769081170292115
0.5615718261624753
0.7154528406220294
0.41538486242589884
0.09223473206083518
0.7231468913450071
0.40769081170292115
0.7154528406220294
0.253809797243367
0.253809797243367
0.41538486242589884
0.8693338550815836
0.5615718261624753
0.253809797243367
0.5615718261624753
0.5615718261624753
0.7231468913450071
0.253809797243367
0.6694762895139578
1.1847899347236694
0.5538777754394976
0.8693338550815836
0.26150384796634474
0.40769081170292115
1.1770958840006918
1.646432978102332
0.8616398043586059
0.253809797243367
0.5692658768854529
0.40769081170292115
0.7154528406220294
0.1076228335067906
0.5615718261624753
0.8616398043586059
0.8770279058045612
0.5615718261624753
0.8693338550815836
1.0232148695411376
1.4925519636427778
0.40769081170292115
0.5615718261624753
0.7231468913450071
0.8693338550815836
0.7154528406220294
0.5615718261624753
0.253809797243367
0.26150384796634474
0.3999967609799434
0.253809797243367
0.35402020987187177
2.054405419649945
2.8238104919477154
0.40769081170292115
1.4848579129198
0.8770279058045612
0.053952231675741244
2.054405419649945
2.054405419649945
0.5615718261624753
1.0232148695411376
0.40769081170292115
0.3617142605948495
2.2005923833865215
1.900524405190391
0.253809797243367
0.7231468913450071
0.253809797243367
0.21552729685827307
0.1076228335067906
0.253809797243367
0.26150384796634474
0.09223473206083518
0.3617142605948495
0.053952231675741244
0.1076228335067906
0.40769081170292115
0.41538486242589884
0.2461157465203893
0.7231468913450071
1.6387389273793542
1.1770958840006918
0.5615718261624753
0.7154528406220294
0.7154528406220294
0.7231468913450071
0.40769081170292115
0.20783324613529539
2.054405419649945
2.8238104919477154
0.253809797243367
0.5615718261624753
1.0232148695411376
0.5615718261624753
0.5692658768854529
2.254262985217571
1.9465009562984625
0.7231468913450071
0.40769081170292115
0.7154528406220294
1.330976898460246
0.5692658768854529
0.09223473206083518
0.1076228335067906
0.5615718261624753
0.7154528406220294
1.1847899347236694
0.053952231675741244
0.253809797243367
0.09223473206083518
0.04625818095276354
0.09992878278381288
0.053952231675741244
0.20783324613529539
2.054405419649945
2.969997455684292
0.3617142605948495
0.40769081170292115
1.800313992561886
1.9465009562984625
1.4848579129198
1.6387389273793542
0.5692658768854529
0.253809797243367
0.5538777754394976
1.1770958840006918
1.1847899347236694
1.1770958840006918
0.7154528406220294
0.5615718261624753
0.8770279058045612
0.7154528406220294
0.8693338550815836
0.7231468913450071
0.21552729685827307
0.41538486242589884
0.40769081170292115
0.09223473206083518
0.7231468913450071
0.7154528406220294
0.1076228335067906
0.09223473206083518
0.04625818095276354
0.09992878278381288
0.053952231675741244
1.1847899347236694
1.4771638621968224
0.7231468913450071
0.20783324613529539
0.09992878278381288
0.20783324613529539
0.20783324613529539
0.04625818095276354
0.5615718261624753
1.4771638621968224
0.5692658768854529
0.09992878278381288
0.5692658768854529
0.8693338550815836
1.4771638621968224
1.1847899347236694
1.0232148695411376
0.8693338550815836
0.253809797243367
0.41538486242589884
1.0232148695411376
1.4925519636427778
0.8616398043586059
0.7231468913450071
0.8693338550815836
1.0232148695411376
1.0232148695411376
0.41538486242589884
0.053952231675741244
0.40769081170292115
1.7466433907308367
2.3621674485690534
0.8693338550815836
0.5615718261624753
0.26150384796634474
0.253809797243367
0.5615718261624753
0.8616398043586059
1.3386709491832236
0.40769081170292115
0.1076228335067906
0.253809797243367
0.40769081170292115
1.330976898460246
0.5615718261624753
0.253809797243367
0.253809797243367
0.5692658768854529
0.7077587898990517
1.0309089202641153
0.40769081170292115
0.41538486242589884
0.5538777754394976
1.0309089202641153
0.7154528406220294
0.41538486242589884
0.8616398043586059
1.3386709491832236
1.169401833277714
