z
0.33523693598319815
0.0366665188649722
0.1098409027418828
0.2563483243487378
0.1869305410258491
0.19068714157987104
0.034708891661444335
0.2601049249027597
0.18872951437634317
0.19444374213389296
0.11179852994541066
0.26386152545678165
0.2601049249027597
0.034708891661444335
0.19068714157987104
0.18497291382232126
0.3389935365372201
0.1098409027418828
0.11555513049943257
0.1098409027418828
0.41036894706363664
0.26386152545678165
0.1193117310534545
0.11359750329590472
0.3389935365372201
0.2601049249027597
0.10608430218786087
0.11179852994541066
0.33523693598319815
0.1098409027418828
0.11555513049943257
0.11179852994541066
0.04417971997301604
0.2601049249027597
0.11359750329590472
0.11179852994541066
0.2563483243487378
0.7146535919394124
0.48550095814407507
0.11179852994541066
0.19444374213389296
0.19068714157987104
0.034708891661444335
0.1869305410258491
0.030952291107422415
0.18872951437634317
0.1869305410258491
0.04417971997301604
0.489257558698097
0.41036894706363664
0.034708891661444335
0.04042311941899412
0.1098409027418828
0.7108969913853904
0.489257558698097
0.1098409027418828
0.034708891661444335
0.489257558698097
0.635764980304952
0.41036894706363664
0.04042311941899412
0.18872951437634317
0.48550095814407507
0.33523693598319815
0.18497291382232126
0.03846549221546626
0.5606329692245136
0.2601049249027597
0.11555513049943257
0.034708891661444335
0.2601049249027597
0.2601049249027597
0.0366665188649722
0.1098409027418828
0.41036894706363664
0.5606329692245136
0.4141255476176585
0.034708891661444335
0.04042311941899412
0.2601049249027597
0.5606329692245136
0.18872951437634317
0.19068714157987104
0.48550095814407507
0.7108969913853904
0.41036894706363664
0.03846549221546626
0.33523693598319815
0.7146535919394124
0.33523693598319815
0.04042311941899412
0.2601049249027597
0.5606329692245136
0.18497291382232126
0.11179852994541066
0.33523693598319815
0.5606329692245136
0.41036894706363664
0.04042311941899412
0.26386152545678165
0.7108969913853904
0.3389935365372201
0.1098409027418828
0.48174435759005313
0.6395215808589739
0.3389935365372201
0.11555513049943257
0.2601049249027597
0.2601049249027597
0.11359750329590472
0.04417971997301604
0.18872951437634317
0.41036894706363664
0.18497291382232126
0.034708891661444335
0.11555513049943257
0.3389935365372201
0.48550095814407507
0.034708891661444335
0.04042311941899412
0.2601049249027597
0.3389935365372201
0.034708891661444335
0.034708891661444335
0.48550095814407507
0.5606329692245136
0.18872951437634317
0.04417971997301604
0.26386152545678165
0.41036894706363664
0.1098409027418828
0.03846549221546626
0.33523693598319815
0.48550095814407507
0.33523693598319815
0.0366665188649722
0.030952291107422415
0.3389935365372201
0.2601049249027597
0.034708891661444335
0.0366665188649722
0.2601049249027597
0.18872951437634317
0.10608430218786087
0.19068714157987104
0.034708891661444335
0.18872951437634317
0.2601049249027597
0.034708891661444335
0.11555513049943257
0.19068714157987104
1.163646685071549
0.8668752413038171
0.2601049249027597
0.0366665188649722
0.030952291107422415
0.6395215808589739
0.5606329692245136
0.1098409027418828
0.11359750329590472
0.5606329692245136
0.41036894706363664
0.1098409027418828
0.19068714157987104
0.11179852994541066
0.034708891661444335
0.2601049249027597
0.2601049249027597
0.034708891661444335
0.18872951437634317
0.11555513049943257
0.1193117310534545
0.4141255476176585
0.18497291382232126
0.1869305410258491
0.034708891661444335
0.2601049249027597
0.2601049249027597
0.034708891661444335
0.19068714157987104
0.11359750329590472
0.2601049249027597
0.18497291382232126
0.034708891661444335
0.034708891661444335
0.4141255476176585
0.48174435759005313
0.18872951437634317
0.04042311941899412
0.19068714157987104
0.04042311941899412
0.11359750329590472
0.1193117310534545
0.11179852994541066
0.11555513049943257
0.41036894706363664
0.489257558698097
0.18497291382232126
0.11555513049943257
0.2601049249027597
0.489257558698097
0.034708891661444335
0.04042311941899412
0.11555513049943257
0.03846549221546626
0.18121631326829932
0.11555513049943257
0.11555513049943257
0.11359750329590472
0.1098409027418828
0.03846549221546626
0.2658191526603095
0.19068714157987104
0.034708891661444335
0.3389935365372201
0.030952291107422415
0.2658191526603095
0.11555513049943257
0.18872951437634317
0.18497291382232126
0.04042311941899412
0.1869305410258491
0.04042311941899412
0.18497291382232126
0.034708891661444335
0.19068714157987104
0.1098409027418828
0.489257558698097
0.18497291382232126
0.04042311941899412
0.034708891661444335
0.41036894706363664
0.26386152545678165
0.04042311941899412
0.6377226075084799
0.18121631326829932
0.11555513049943257
0.2658191526603095
0.1098409027418828
0.0366665188649722
0.11555513049943257
0.18872951437634317
0.2601049249027597
0.18497291382232126
0.11555513049943257
0.18497291382232126
0.41036894706363664
0.26386152545678165
0.030952291107422415
0.4085699737131426
0.5606329692245136
0.41036894706363664
0.1098409027418828
0.04042311941899412
0.034708891661444335
0.33523693598319815
0.18872951437634317
0.04417971997301604
0.0366665188649722
0.1098409027418828
0.3389935365372201
0.1098409027418828
0.034708891661444335
0.48550095814407507
0.4141255476176585
0.18121631326829932
0.4141255476176585
0.5606329692245136
0.48550095814407507
0.18497291382232126
0.41036894706363664
0.41036894706363664
0.3389935365372201
0.11555513049943257
0.04042311941899412
0.11555513049943257
0.11179852994541066
0.0366665188649722
0.19444374213389296
0.41036894706363664
0.489257558698097
0.18497291382232126
0.03846549221546626
0.48174435759005313
0.2601049249027597
0.0366665188649722
0.1098409027418828
0.6395215808589739
0.33148033542917626
0.034708891661444335
0.18872951437634317
0.5606329692245136
0.33523693598319815
0.2601049249027597
0.41036894706363664
0.6395215808589739
0.3389935365372201
0.030952291107422415
0.18497291382232126
0.7146535919394124
0.4141255476176585
0.030952291107422415
0.18872951437634317
0.4066123465096147
0.41788214817168046
0.1098409027418828
0.10608430218786087
0.3389935365372201
0.33523693598319815
0.1098409027418828
0.03846549221546626
0.5606329692245136
0.48174435759005313
0.11359750329590472
0.04042311941899412
0.2601049249027597
0.4141255476176585
0.04042311941899412
0.034708891661444335
0.2601049249027597
0.18872951437634317
0.10608430218786087
0.0366665188649722
0.18497291382232126
0.41036894706363664
0.034708891661444335
1.0922712745451324
1.7647027737150567
0.18121631326829932
0.11359750329590472
0.18872951437634317
0.1193117310534545
0.18497291382232126
0.2601049249027597
0.03846549221546626
0.0366665188649722
0.18121631326829932
0.3389935365372201
0.034708891661444335
0.11555513049943257
0.1098409027418828
0.33523693598319815
0.1098409027418828
0.0366665188649722
0.03846549221546626
0.41036894706363664
0.2601049249027597
0.11555513049943257
0.41036894706363664
0.5606329692245136
0.2601049249027597
0.0366665188649722
0.2601049249027597
0.48550095814407507
0.1098409027418828
0.03846549221546626
0.33523693598319815
0.5606329692245136
0.2601049249027597
0.04042311941899412
0.11359750329590472
0.18121631326829932
0.18872951437634317
0.1869305410258491
0.04417971997301604
0.48745858534760295
1.0076684351531224
0.11359750329590472
0.11179852994541066
0.41036894706363664
0.41036894706363664
0.18497291382232126
0.1098409027418828
0.2601049249027597
0.48550095814407507
0.1098409027418828
0.0366665188649722
0.1098409027418828
0.18872951437634317
0.2563483243487378
0.04042311941899412
0.0366665188649722
0.41036894706363664
0.3389935365372201
0.8668752413038171
1.3890427183128644
0.034708891661444335
0.04042311941899412
0.33523693598319815
0.41036894706363664
0.11359750329590472
0.1193117310534545
0.1869305410258491
0.19068714157987104
0.034708891661444335
0.2658191526603095
0.337194563186726
0.030952291107422415
0.489257558698097
0.034708891661444335
0.11179852994541066
0.48550095814407507
0.48550095814407507
0.11359750329590472
0.1193117310534545
0.0366665188649722
0.41036894706363664
0.11555513049943257
0.19068714157987104
0.11555513049943257
0.18872951437634317
0.034708891661444335
0.19068714157987104
0.2658191526603095
0.034708891661444335
0.2601049249027597
0.11555513049943257
0.11179852994541066
0.1098409027418828
0.18497291382232126
0.0366665188649722
0.19068714157987104
0.034708891661444335
0.18872951437634317
0.030952291107422415
0.0366665188649722
0.11555513049943257
0.1098409027418828
0.2601049249027597
0.034708891661444335
0.2658191526603095
0.04042311941899412
0.5643895697785355
0.1098409027418828
0.19068714157987104
0.2658191526603095
0.0366665188649722
0.18121631326829932
0.03846549221546626
0.19068714157987104
0.2620625521062876
0.19444374213389296
0.337194563186726
0.11555513049943257
0.11555513049943257
0.2658191526603095
0.2658191526603095
0.034708891661444335
0.2601049249027597
0.11179852994541066
0.2658191526603095
0.2658191526603095
0.0366665188649722
0.1098409027418828
0.19444374213389296
0.41232657426716446
0.2658191526603095
0.11359750329590472
0.48174435759005313
0.0366665188649722
0.04042311941899412
0.04042311941899412
0.26386152545678165
0.41036894706363664
0.04042311941899412
0.04042311941899412
0.18497291382232126
0.26386152545678165
0.11555513049943257
0.030952291107422415
0.26386152545678165
0.48550095814407507
0.0366665188649722
0.04417971997301604
0.3389935365372201
0.2601049249027597
0.034708891661444335
0.11179852994541066
0.2601049249027597
0.33523693598319815
0.03846549221546626
0.04417971997301604
0.18872951437634317
0.2601049249027597
0.04042311941899412
0.19068714157987104
0.1098409027418828
0.2601049249027597
0.0366665188649722
0.11555513049943257
0.034708891661444335
0.26386152545678165
0.034708891661444335
0.1193117310534545
0.5643895697785355
0.48550095814407507
0.11359750329590472
0.030952291107422415
0.26386152545678165
0.18497291382232126
0.0366665188649722
0.19444374213389296
0.03846549221546626
0.18497291382232126
0.11555513049943257
0.11179852994541066
0.33148033542917626
0.18497291382232126
0.04042311941899412
0.1869305410258491
0.04042311941899412
0.11555513049943257
0.2658191526603095
0.0366665188649722
0.19068714157987104
0.34470776429476985
0.1869305410258491
0.3389935365372201
0.1098409027418828
0.11555513049943257
0.19068714157987104
0.5606329692245136
0.6395215808589739
0.18497291382232126
0.04042311941899412
0.2601049249027597
0.635764980304952
0.41036894706363664
0.41036894706363664
0.489257558698097
0.3389935365372201
0.04417971997301604
0.489257558698097
0.2601049249027597
0.1098409027418828
0.11555513049943257
0.41036894706363664
0.18872951437634317
0.11555513049943257
0.18497291382232126
0.5606329692245136
0.2601049249027597
0.11179852994541066
0.33523693598319815
0.1098409027418828
0.11555513049943257
0.11179852994541066
0.48550095814407507
0.2601049249027597
0.04042311941899412
0.034708891661444335
0.03846549221546626
0.034708891661444335
0.04042311941899412
0.1869305410258491
0.18121631326829932
0.26386152545678165
0.1193117310534545
0.11179852994541066
0.26386152545678165
0.1098409027418828
0.11555513049943257
0.11555513049943257
0.2601049249027597
0.2601049249027597
0.0366665188649722
0.04042311941899412
0.33523693598319815
0.2601049249027597
0.04042311941899412
0.11359750329590472
0.48550095814407507
0.41036894706363664
0.0366665188649722
0.034708891661444335
0.18121631326829932
0.26386152545678165
0.03846549221546626
0.04042311941899412
0.33523693598319815
0.2601049249027597
0.11555513049943257
0.18872951437634317
0.33148033542917626
0.3389935365372201
0.034708891661444335
0.04042311941899412
0.33523693598319815
0.18872951437634317
0.034708891661444335
0.11555513049943257
0.04042311941899412
0.3389935365372201
0.030952291107422415
0.11555513049943257
0.18872951437634317
0.41036894706363664
0.18497291382232126
0.04042311941899412
0.26386152545678165
0.41036894706363664
0.1098409027418828
0.04042311941899412
0.26386152545678165
0.2601049249027597
0.18497291382232126
0.04042311941899412
0.41036894706363664
0.3389935365372201
0.11555513049943257
0.1098409027418828
0.41036894706363664
0.26386152545678165
0.11555513049943257
0.034708891661444335
0.4141255476176585
0.1098409027418828
0.04417971997301604
0.0366665188649722
0.5606329692245136
0.2601049249027597
0.04042311941899412
0.11359750329590472
0.2601049249027597
0.1098409027418828
0.0366665188649722
0.11555513049943257
0.33148033542917626
0.18872951437634317
0.034708891661444335
0.11179852994541066
0.33148033542917626
0.4141255476176585
0.1098409027418828
0.11555513049943257
0.1098409027418828
0.2601049249027597
0.034708891661444335
0.03846549221546626
0.0366665188649722
0.18121631326829932
0.26386152545678165
0.030952291107422415
0.11179852994541066
0.034708891661444335
0.489257558698097
0.18497291382232126
0.04042311941899412
0.04042311941899412
0.034708891661444335
0.034708891661444335
0.04042311941899412
0.1869305410258491
0.33148033542917626
0.11359750329590472
0.18872951437634317
0.19068714157987104
0.2563483243487378
0.4141255476176585
0.33523693598319815
0.11555513049943257
0.1098409027418828
0.4141255476176585
0.2601049249027597
0.04042311941899412
0.18872951437634317
0.18497291382232126
0.034708891661444335
0.11555513049943257
0.034708891661444335
0.5606329692245136
0.26386152545678165
0.04042311941899412
0.18497291382232126
0.3389935365372201
0.2601049249027597
0.04042311941899412
0.034708891661444335
0.2601049249027597
0.034708891661444335
0.04042311941899412
0.1869305410258491
0.2601049249027597
0.41036894706363664
0.0366665188649722
0.04417971997301604
0.26386152545678165
0.26386152545678165
0.1193117310534545
0.41232657426716446
1.3965559194209083
1.464174729393303
0.34470776429476985
0.1869305410258491
0.18872951437634317
0.04417971997301604
0.2620625521062876
0.034708891661444335
0.034708891661444335
0.18497291382232126
0.2658191526603095
0.1869305410258491
0.10608430218786087
0.03846549221546626
0.11555513049943257
0.2658191526603095
0.11179852994541066
0.41036894706363664
0.1098409027418828
0.11555513049943257
0.1869305410258491
0.1098409027418828
0.48550095814407507
0.1098409027418828
0.2601049249027597
0.9400496251807278
0.7108969913853904
0.2601049249027597
0.18497291382232126
0.48550095814407507
0.18497291382232126
0.04042311941899412
0.26386152545678165
0.41036894706363664
0.18872951437634317
0.04042311941899412
0.41036894706363664
0.41036894706363664
0.11359750329590472
0.034708891661444335
0.41036894706363664
0.41036894706363664
0.1098409027418828
0.034708891661444335
0.3389935365372201
0.48174435759005313
0.18872951437634317
0.0366665188649722
0.2601049249027597
0.41036894706363664
0.18497291382232126
0.11179852994541066
0.19444374213389296
0.11179852994541066
0.04417971997301604
0.0366665188649722
0.19068714157987104
0.11555513049943257
0.3389935365372201
0.48174435759005313
0.11359750329590472
0.11555513049943257
0.04042311941899412
0.1098409027418828
0.11359750329590472
0.034708891661444335
0.11555513049943257
0.33523693598319815
0.41036894706363664
0.11359750329590472
0.04042311941899412
0.33523693598319815
0.48550095814407507
0.18497291382232126
0.03846549221546626
0.2601049249027597
0.5606329692245136
0.489257558698097
0.04417971997301604
0.18872951437634317
0.33523693598319815
0.5606329692245136
0.18872951437634317
0.11555513049943257
0.18497291382232126
0.26386152545678165
0.33148033542917626
0.18872951437634317
0.11179852994541066
0.18497291382232126
0.49497178645564677
0.3389935365372201
0.034708891661444335
0.5606329692245136
0.18497291382232126
0.034708891661444335
0.03846549221546626
0.4066123465096147
0.48550095814407507
0.11359750329590472
0.19444374213389296
0.0366665188649722
0.33523693598319815
0.1098409027418828
0.19068714157987104
0.19068714157987104
0.18497291382232126
0.41036894706363664
0.034708891661444335
0.034708891661444335
0.2601049249027597
0.41036894706363664
0.26386152545678165
0.11555513049943257
0.034708891661444335
0.635764980304952
0.18872951437634317
0.04417971997301604
0.11555513049943257
0.2601049249027597
0.5606329692245136
0.034708891661444335
0.0366665188649722
0.04042311941899412
0.9420072523842556
1.69332736318864
0.1098409027418828
0.2658191526603095
0.2601049249027597
0.8611610135462674
0.4141255476176585
0.18121631326829932
0.11179852994541066
0.18497291382232126
0.18497291382232126
0.04042311941899412
0.0366665188649722
0.5606329692245136
0.41036894706363664
0.034708891661444335
0.04042311941899412
0.635764980304952
0.48550095814407507
0.4160831748211864
1.1616890578680212
0.7897856030198508
0.7108969913853904
0.33148033542917626
0.11359750329590472
0.33523693598319815
0.33523693598319815
0.11555513049943257
0.3389935365372201
0.63200837975093
0.4141255476176585
0.18121631326829932
0.3389935365372201
0.5606329692245136
0.2601049249027597
0.11555513049943257
0.18497291382232126
0.41036894706363664
0.11359750329590472
0.04042311941899412
0.18497291382232126
0.41036894706363664
0.33523693598319815
0.11179852994541066
0.04417971997301604
0.3389935365372201
0.030952291107422415
0.6414792080625018
1.3927993188668863
1.017139263464694
0.11555513049943257
0.1098409027418828
0.5625905964280414
1.017139263464694
1.2425352967060095
0.2601049249027597
0.19444374213389296
0.1869305410258491
0.034708891661444335
0.11179852994541066
0.1193117310534545
0.19068714157987104
0.3389935365372201
0.33148033542917626
0.11359750329590472
0.04042311941899412
0.034708891661444335
0.41036894706363664
0.33523693598319815
0.1098409027418828
0.19068714157987104
0.19068714157987104
0.6377226075084799
0.782272401911807
0.11179852994541066
0.19444374213389296
0.18872951437634317
0.33523693598319815
0.34095116374074796
1.167403285625571
0.9420072523842556
1.697083963742662
1.163646685071549
0.2658191526603095
0.04042311941899412
0.2658191526603095
0.337194563186726
0.11555513049943257
0.04042311941899412
0.34470776429476985
0.0366665188649722
0.48550095814407507
0.4141255476176585
0.2601049249027597
0.2658191526603095
0.3389935365372201
0.48174435759005313
0.1098409027418828
0.11359750329590472
0.1098409027418828
0.48550095814407507
0.33523693598319815
0.1869305410258491
0.2563483243487378
0.3389935365372201
0.034708891661444335
0.19068714157987104
1.2425352967060095
1.5430633410277632
0.489257558698097
0.1098409027418828
0.034708891661444335
0.03846549221546626
0.48174435759005313
0.18872951437634317
0.10608430218786087
0.3389935365372201
0.5606329692245136
0.3389935365372201
0.034708891661444335
0.2601049249027597
0.41036894706363664
0.2601049249027597
0.11555513049943257
0.11359750329590472
0.48550095814407507
0.33523693598319815
0.11555513049943257
0.18872951437634317
0.48174435759005313
0.11359750329590472
0.11179852994541066
1.1711598861795929
1.467931329947325
13.56598408724841
0.2658191526603095
0.18497291382232126
0.11359750329590472
0.1098409027418828
0.2601049249027597
0.034708891661444335
0.034708891661444335
0.1098409027418828
0.2601049249027597
0.11359750329590472
0.04042311941899412
0.41036894706363664
0.33523693598319815
0.03846549221546626
1.017139263464694
1.69332736318864
0.34095116374074796
0.2658191526603095
0.04042311941899412
0.337194563186726
0.34095116374074796
1.3214239083404697
1.6144387515541798
0.04417971997301604
0.03846549221546626
0.11555513049943257
0.337194563186726
1.2462918972600314
1.3139107072324259
0.2601049249027597
0.0366665188649722
0.04042311941899412
0.19444374213389296
0.03846549221546626
0.034708891661444335
0.19068714157987104
0.19068714157987104
0.18872951437634317
0.48174435759005313
0.18872951437634317
0.11555513049943257
0.2601049249027597
0.41036894706363664
0.5643895697785355
0.034708891661444335
0.11359750329590472
0.41036894706363664
0.2601049249027597
0.33523693598319815
0.1098409027418828
0.489257558698097
0.63200837975093
0.26386152545678165
0.034708891661444335
0.48550095814407507
0.489257558698097
0.1098409027418828
0.034708891661444335
0.489257558698097
0.48174435759005313
0.2601049249027597
0.0366665188649722
0.2658191526603095
1.0865570467875827
0.41036894706363664
0.11179852994541066
0.4141255476176585
0.5606329692245136
0.41036894706363664
0.04042311941899412
0.2601049249027597
0.5643895697785355
0.41036894706363664
0.04042311941899412
0.10608430218786087
0.4141255476176585
0.18497291382232126
0.0366665188649722
0.18497291382232126
0.41036894706363664
0.33523693598319815
0.0366665188649722
0.034708891661444335
0.33148033542917626
0.18872951437634317
0.0366665188649722
0.1098409027418828
0.34470776429476985
1.1654456584220432
0.04042311941899412
0.8668752413038171
1.6181953521082018
0.41036894706363664
0.18497291382232126
0.03846549221546626
0.2601049249027597
0.33523693598319815
0.03846549221546626
0.10608430218786087
0.3389935365372201
0.33523693598319815
0.33523693598319815
0.1869305410258491
0.41036894706363664
0.6395215808589739
0.41036894706363664
0.11555513049943257
0.18121631326829932
0.489257558698097
0.18497291382232126
0.18872951437634317
0.2601049249027597
0.5606329692245136
0.33523693598319815
0.04042311941899412
0.18497291382232126
0.489257558698097
0.33523693598319815
0.034708891661444335
0.1098409027418828
0.48550095814407507
0.1098409027418828
0.11555513049943257
0.11359750329590472
0.4141255476176585
0.41036894706363664
0.10608430218786087
0.41232657426716446
0.8611610135462674
0.7108969913853904
0.4141255476176585
0.1193117310534545
0.1869305410258491
0.11555513049943257
0.34095116374074796
0.3389935365372201
0.034708891661444335
0.04042311941899412
0.11555513049943257
0.2601049249027597
0.4141255476176585
0.18121631326829932
0.11179852994541066
0.2601049249027597
0.48550095814407507
0.1098409027418828
0.11179852994541066
0.11359750329590472
0.10608430218786087
0.1098409027418828
0.2658191526603095
0.337194563186726
0.04042311941899412
0.034708891661444335
0.1098409027418828
0.0366665188649722
0.04042311941899412
0.2601049249027597
0.33523693598319815
0.18872951437634317
0.2658191526603095
0.41036894706363664
0.489257558698097
0.18121631326829932
0.11555513049943257
0.0366665188649722
0.04042311941899412
0.41036894706363664
0.034708891661444335
0.11179852994541066
0.33523693598319815
0.5606329692245136
0.41036894706363664
0.03846549221546626
0.48174435759005313
0.4141255476176585
0.1098409027418828
0.3389935365372201
0.48174435759005313
0.26386152545678165
0.1098409027418828
0.41036894706363664
0.41036894706363664
0.5606329692245136
0.337194563186726
1.2425352967060095
0.9420072523842556
1.6181953521082018
6.49230524402513
0.2601049249027597
0.04042311941899412
0.7917432302233787
0.33523693598319815
0.19068714157987104
0.034708891661444335
0.2658191526603095
0.11555513049943257
0.33148033542917626
0.0366665188649722
1.167403285625571
1.697083963742662
0.2658191526603095
0.0366665188649722
0.2601049249027597
0.19068714157987104
0.34095116374074796
0.19068714157987104
0.18497291382232126
0.18497291382232126
1.017139263464694
1.467931329947325
0.11555513049943257
0.337194563186726
0.1193117310534545
0.1869305410258491
0.11555513049943257
0.2658191526603095
0.49497178645564677
1.464174729393303
1.7722159748231006
1.464174729393303
1.69332736318864
1.7722159748231006
1.7684593742690786
1.8435913853495172
1.9149667958759335
1.7722159748231006
1.8435913853495172
0.4160831748211864
1.3927993188668863
0.6377226075084799
1.5430633410277632
0.4912151859016249
0.33523693598319815
0.1098409027418828
0.33523693598319815
0.7108969913853904
0.3389935365372201
0.10608430218786087
0.18872951437634317
0.635764980304952
0.7860290024658289
0.635764980304952
0.2601049249027597
0.5606329692245136
0.7897856030198508
0.5606329692245136
0.034708891661444335
0.1098409027418828
0.6395215808589739
0.2563483243487378
0.19068714157987104
1.2425352967060095
1.69332736318864
0.0366665188649722
0.4160831748211864
1.4716879305013466
0.3389935365372201
0.04417971997301604
0.3389935365372201
0.5606329692245136
0.11555513049943257
1.2368210689484596
0.41036894706363664
0.7108969913853904
0.6395215808589739
0.18497291382232126
0.41036894706363664
0.7897856030198508
0.5606329692245136
0.2563483243487378
0.41036894706363664
0.7108969913853904
0.489257558698097
0.2601049249027597
0.635764980304952
0.635764980304952
0.48550095814407507
0.18872951437634317
0.1098409027418828
0.41036894706363664
0.18497291382232126
0.034708891661444335
0.34095116374074796
0.19068714157987104
0.5606329692245136
0.6414792080625018
0.8611610135462674
0.2658191526603095
0.489257558698097
0.48550095814407507
5.218817656211698
1.991897780306866
0.1098409027418828
1.0922712745451324
1.017139263464694
1.697083963742662
1.8435913853495172
0.7128546185889183
1.467931329947325
1.2425352967060095
1.7684593742690786
0.7917432302233787
1.5468199415817852
0.7879866296693567
0.18497291382232126
0.04042311941899412
0.034708891661444335
0.2601049249027597
0.489257558698097
0.33148033542917626
0.26386152545678165
0.11555513049943257
0.1098409027418828
0.2601049249027597
0.48550095814407507
0.2601049249027597
0.04042311941899412
0.26386152545678165
0.48174435759005313
0.11359750329590472
0.04042311941899412
0.1098409027418828
0.18497291382232126
2.2172938135481814
0.7108969913853904
0.48550095814407507
0.8668752413038171
1.6181953521082018
0.489257558698097
0.2601049249027597
0.034708891661444335
0.18872951437634317
0.2658191526603095
0.2601049249027597
0.04042311941899412
0.034708891661444335
0.33523693598319815
0.9420072523842556
1.69332736318864
0.34095116374074796
0.2601049249027597
0.6377226075084799
1.4716879305013466
0.5663471969820633
1.464174729393303
1.3927993188668863
0.1098409027418828
0.1098409027418828
1.0133826629106721
1.3870850911093366
0.2601049249027597
0.3389935365372201
0.49497178645564677
0.5643895697785355
0.034708891661444335
0.1098409027418828
0.04042311941899412
1.167403285625571
1.8398347847954952
14.088151564257457
0.6395215808589739
2.5140652573159135
0.33523693598319815
0.11179852994541066
0.4160831748211864
0.7108969913853904
0.04042311941899412
0.034708891661444335
0.03846549221546626
0.10608430218786087
1.0885146739911107
1.69332736318864
0.2658191526603095
0.19444374213389296
0.9382506518302337
1.69332736318864
0.11555513049943257
1.017139263464694
1.7684593742690786
0.41232657426716446
1.3214239083404697
1.5393067404737413
1.7684593742690786
1.8435913853495172
1.8435913853495172
0.5663471969820633
1.464174729393303
1.8435913853495172
0.11555513049943257
0.4160831748211864
1.3927993188668863
1.8435913853495172
1.9187233964299555
0.19068714157987104
0.7879866296693567
0.41036894706363664
0.2601049249027597
0.4160831748211864
1.2425352967060095
0.8668752413038171
0.2601049249027597
0.3389935365372201
0.2601049249027597
0.034708891661444335
0.2601049249027597
0.26386152545678165
0.4160831748211864
0.5606329692245136
0.3389935365372201
0.33148033542917626
0.11359750329590472
0.034708891661444335
0.33523693598319815
0.3389935365372201
0.034708891661444335
0.11555513049943257
0.7166112191429402
1.017139263464694
1.017139263464694
0.11359750329590472
1.0960278750991543
1.7647027737150567
0.11555513049943257
1.2425352967060095
1.8435913853495172
1.9187233964299555
1.017139263464694
0.2620625521062876
0.04417971997301604
0.1869305410258491
0.1098409027418828
0.19068714157987104
0.6395215808589739
0.4160831748211864
1.3214239083404697
1.3927993188668863
0.2620625521062876
0.034708891661444335
0.1869305410258491
1.2462918972600314
1.7684593742690786
1.5393067404737413
1.6219519526622237
0.11359750329590472
0.2601049249027597
0.3389935365372201
0.04042311941899412
0.10608430218786087
0.3389935365372201
0.2601049249027597
0.4912151859016249
0.7146535919394124
0.2601049249027597
0.4160831748211864
0.8611610135462674
0.034708891661444335
0.18872951437634317
0.33523693598319815
0.04042311941899412
1.0922712745451324
1.7684593742690786
0.11555513049943257
0.2658191526603095
1.2387786961519875
1.467931329947325
1.017139263464694
1.69332736318864
0.4160831748211864
0.6377226075084799
1.5430633410277632
0.1098409027418828
0.6414792080625018
1.5430633410277632
2.0632731908332826
0.18872951437634317
0.11555513049943257
0.04042311941899412
0.1869305410258491
0.18121631326829932
0.18872951437634317
0.11555513049943257
0.19068714157987104
0.19068714157987104
0.4912151859016249
0.26386152545678165
0.34095116374074796
0.2658191526603095
0.4160831748211864
1.3139107072324259
1.3965559194209083
1.3927993188668863
1.6181953521082018
1.5393067404737413
1.1711598861795929
1.8435913853495172
1.163646685071549
1.8435913853495172
1.017139263464694
1.6181953521082018
0.9420072523842556
1.467931329947325
0.7166112191429402
0.1098409027418828
0.26386152545678165
0.2601049249027597
0.04042311941899412
1.0885146739911107
1.0922712745451324
0.04042311941899412
0.41036894706363664
0.48550095814407507
0.1098409027418828
0.11359750329590472
0.18497291382232126
0.8631186407497952
1.6219519526622237
0.48745858534760295
1.3927993188668863
1.2462918972600314
0.1869305410258491
0.11555513049943257
1.167403285625571
1.69332736318864
1.69332736318864
1.3927993188668863
1.6144387515541798
0.870631841857839
0.19068714157987104
1.2425352967060095
0.8668752413038171
1.6144387515541798
1.3176673077864478
1.5430633410277632
0.7917432302233787
0.489257558698097
0.2601049249027597
0.1098409027418828
0.41036894706363664
0.5625905964280414
0.9362930246267058
0.04042311941899412
0.26386152545678165
0.2601049249027597
0.11555513049943257
0.034708891661444335
0.2601049249027597
1.017139263464694
1.5430633410277632
1.7647027737150567
1.2425352967060095
1.69332736318864
1.0960278750991543
1.6144387515541798
0.8668752413038171
0.33523693598319815
0.1098409027418828
0.11359750329590472
0.034708891661444335
0.2658191526603095
0.11555513049943257
0.2658191526603095
1.0133826629106721
0.48550095814407507
0.11555513049943257
1.167403285625571
1.0922712745451324
1.7647027737150567
0.9420072523842556
1.7722159748231006
1.167403285625571
0.0366665188649722
0.4912151859016249
1.462217102189775
0.11179852994541066
0.04042311941899412
0.034708891661444335
0.11555513049943257
0.11179852994541066
0.19068714157987104
1.167403285625571
1.6181953521082018
1.6181953521082018
1.3176673077864478
1.9187233964299555
1.69332736318864
1.467931329947325
1.8398347847954952
1.3927993188668863
1.8435913853495172
1.8435913853495172
1.3927993188668863
1.8435913853495172
0.034708891661444335
0.7917432302233787
1.6144387515541798
0.034708891661444335
0.2601049249027597
0.6395215808589739
0.5606329692245136
0.1098409027418828
0.41036894706363664
0.635764980304952
0.33523693598319815
0.33523693598319815
0.7897856030198508
0.5606329692245136
0.1098409027418828
0.2601049249027597
0.4141255476176585
0.5663471969820633
0.48550095814407507
0.26386152545678165
0.1098409027418828
0.8668752413038171
1.69332736318864
0.10608430218786087
0.11179852994541066
0.7108969913853904
0.0366665188649722
0.33523693598319815
0.34095116374074796
0.7897856030198508
0.18121631326829932
0.41036894706363664
0.3389935365372201
0.0366665188649722
0.030952291107422415
0.034708891661444335
0.0366665188649722
0.6414792080625018
0.33523693598319815
0.1098409027418828
0.18497291382232126
0.11179852994541066
0.04042311941899412
0.33523693598319815
0.8668752413038171
1.69332736318864
0.1869305410258491
0.034708891661444335
0.33523693598319815
0.2658191526603095
0.7897856030198508
0.034708891661444335
0.41036894706363664
0.41036894706363664
0.2601049249027597
0.3389935365372201
0.33523693598319815
0.6414792080625018
1.5430633410277632
0.1098409027418828
0.1098409027418828
0.4912151859016249
1.464174729393303
0.10608430218786087
0.03846549221546626
0.33523693598319815
0.3389935365372201
0.9457638529382775
0.6452358086165237
0.2658191526603095
1.0114250357071444
1.31570968058292
1.0114250357071444
0.4160831748211864
1.3927993188668863
0.3389935365372201
0.8611610135462674
1.2368210689484596
1.0865570467875827
0.635764980304952
0.7108969913853904
0.7146535919394124
0.4066123465096147
0.2601049249027597
0.034708891661444335
0.03846549221546626
0.48550095814407507
0.2601049249027597
0.034708891661444335
0.1098409027418828
0.7897856030198508
0.63200837975093
0.489257558698097
0.034708891661444335
0.2601049249027597
0.7860290024658289
0.18497291382232126
0.0366665188649722
0.04417971997301604
0.7146535919394124
0.2563483243487378
0.0366665188649722
0.030952291107422415
0.8686742146543112
0.7108969913853904
0.48174435759005313
0.2601049249027597
0.6395215808589739
0.48550095814407507
0.2601049249027597
0.33523693598319815
0.48550095814407507
0.41036894706363664
0.034708891661444335
0.489257558698097
1.0114250357071444
0.5606329692245136
0.2601049249027597
0.7108969913853904
0.8649176141002892
0.33523693598319815
0.489257558698097
0.7108969913853904
0.2601049249027597
0.034708891661444335
0.7108969913853904
0.5643895697785355
0.034708891661444335
0.33523693598319815
0.7860290024658289
0.7897856030198508
0.18121631326829932
0.26386152545678165
0.7860290024658289
0.5606329692245136
0.6377226075084799
1.311953080028898
0.635764980304952
0.4141255476176585
0.1098409027418828
0.5606329692245136
0.6395215808589739
0.33148033542917626
0.11359750329590472
1.0960278750991543
1.5430633410277632
0.7879866296693567
1.6181953521082018
0.2658191526603095
0.04042311941899412
0.2601049249027597
0.11359750329590472
0.7166112191429402
0.8611610135462674
0.18497291382232126
0.18497291382232126
0.11359750329590472
0.2601049249027597
0.5606329692245136
0.2601049249027597
0.18872951437634317
0.5606329692245136
0.5606329692245136
0.1869305410258491
0.9362930246267058
0.7108969913853904
0.41036894706363664
0.18497291382232126
0.6395215808589739
0.5606329692245136
0.3389935365372201
0.2601049249027597
0.63200837975093
0.7108969913853904
0.3389935365372201
0.1098409027418828
0.7897856030198508
0.8611610135462674
0.489257558698097
0.5606329692245136
0.7166112191429402
1.5430633410277632
0.10608430218786087
0.7166112191429402
0.8649176141002892
0.635764980304952
0.18872951437634317
0.2601049249027597
0.6395215808589739
0.33148033542917626
0.18497291382232126
0.2601049249027597
0.6395215808589739
0.3389935365372201
0.04417971997301604
0.5643895697785355
0.18497291382232126
0.034708891661444335
0.2601049249027597
0.7108969913853904
0.3389935365372201
0.18497291382232126
0.7146535919394124
0.5606329692245136
0.33148033542917626
0.26386152545678165
0.48550095814407507
0.11359750329590472
0.18121631326829932
0.4141255476176585
0.33523693598319815
0.18497291382232126
0.1098409027418828
0.4141255476176585
0.41036894706363664
0.2601049249027597
0.18872951437634317
0.48174435759005313
0.4141255476176585
0.1098409027418828
0.3389935365372201
0.63200837975093
0.41036894706363664
0.489257558698097
0.7108969913853904
0.7108969913853904
0.489257558698097
0.5606329692245136
0.6395215808589739
0.33148033542917626
0.26386152545678165
0.635764980304952
0.41036894706363664
0.034708891661444335
0.3389935365372201
0.63200837975093
0.11359750329590472
0.1098409027418828
0.489257558698097
0.18497291382232126
0.04042311941899412
0.1098409027418828
0.48550095814407507
0.2601049249027597
0.03846549221546626
0.41036894706363664
0.5606329692245136
0.26386152545678165
0.1098409027418828
0.63200837975093
0.4141255476176585
0.18497291382232126
0.33523693598319815
0.6395215808589739
0.1098409027418828
0.11555513049943257
0.3389935365372201
0.33148033542917626
0.0366665188649722
0.04042311941899412
0.18497291382232126
0.1098409027418828
0.1098409027418828
0.3389935365372201
0.48550095814407507
0.03846549221546626
0.04417971997301604
0.489257558698097
0.2601049249027597
0.1098409027418828
0.0366665188649722
0.5606329692245136
0.18497291382232126
0.1098409027418828
0.11555513049943257
0.11179852994541066
0.11555513049943257
0.19068714157987104
0.11555513049943257
0.04042311941899412
0.0366665188649722
0.782272401911807
0.3389935365372201
0.034708891661444335
0.18121631326829932
0.41788214817168046
0.33148033542917626
0.0366665188649722
0.04042311941899412
0.7860290024658289
0.5643895697785355
0.10608430218786087
0.489257558698097
0.7860290024658289
0.5606329692245136
0.33523693598319815
0.489257558698097
0.635764980304952
0.33523693598319815
0.41036894706363664
0.5606329692245136
0.3389935365372201
0.33523693598319815
0.5606329692245136
0.7146535919394124
0.33523693598319815
0.03846549221546626
0.48174435759005313
0.489257558698097
0.2601049249027597
0.41036894706363664
0.7108969913853904
0.5606329692245136
0.11359750329590472
0.49497178645564677
1.464174729393303
0.2658191526603095
0.04042311941899412
0.1098409027418828
0.5643895697785355
0.2601049249027597
0.04042311941899412
0.33523693598319815
0.6395215808589739
0.33148033542917626
0.18872951437634317
0.6395215808589739
0.48174435759005313
0.41036894706363664
0.8631186407497952
1.6181953521082018
0.7108969913853904
0.5606329692245136
0.5663471969820633
1.464174729393303
0.18497291382232126
0.7108969913853904
0.48550095814407507
0.4141255476176585
0.5606329692245136
0.48550095814407507
0.26386152545678165
0.10608430218786087
0.4141255476176585
0.48550095814407507
0.2601049249027597
0.03846549221546626
0.7108969913853904
0.48550095814407507
0.18497291382232126
0.48550095814407507
0.7146535919394124
0.41036894706363664
0.18497291382232126
0.7897856030198508
0.63200837975093
0.2601049249027597
0.6395215808589739
0.7108969913853904
0.18872951437634317
0.04417971997301604
0.7897856030198508
0.48550095814407507
0.8631186407497952
1.5430633410277632
0.41036894706363664
0.19068714157987104
0.11555513049943257
0.04042311941899412
0.4912151859016249
0.489257558698097
1.0114250357071444
1.015181636261166
0.49497178645564677
1.464174729393303
1.467931329947325
1.8435913853495172
1.847347985903539
0.337194563186726
1.3176673077864478
1.0922712745451324
0.19068714157987104
1.2425352967060095
1.3139107072324259
0.63200837975093
0.489257558698097
0.2601049249027597
0.5606329692245136
0.7897856030198508
0.489257558698097
0.18121631326829932
0.5606329692245136
0.489257558698097
0.1098409027418828
0.26386152545678165
0.5606329692245136
0.41036894706363664
0.2601049249027597
0.18497291382232126
0.8649176141002892
0.635764980304952
0.18497291382232126
0.4141255476176585
0.63200837975093
0.18872951437634317
0.1098409027418828
0.7860290024658289
0.5643895697785355
0.18497291382232126
0.2601049249027597
0.5606329692245136
0.18872951437634317
0.10608430218786087
0.5643895697785355
0.635764980304952
0.1098409027418828
0.48745858534760295
1.458460501635753
0.4141255476176585
0.034708891661444335
0.48550095814407507
0.5606329692245136
0.41036894706363664
0.18872951437634317
0.41036894706363664
0.7108969913853904
0.3389935365372201
0.2601049249027597
0.48550095814407507
0.6395215808589739
0.18121631326829932
0.11555513049943257
0.48550095814407507
0.1098409027418828
0.034708891661444335
0.18497291382232126
0.635764980304952
0.3389935365372201
0.2601049249027597
0.33523693598319815
0.635764980304952
0.33523693598319815
0.18497291382232126
0.5606329692245136
0.5606329692245136
0.41036894706363664
0.2601049249027597
0.8611610135462674
0.489257558698097
0.33523693598319815
0.635764980304952
0.7860290024658289
0.18872951437634317
0.782272401911807
0.5606329692245136
0.26386152545678165
0.034708891661444335
0.7860290024658289
0.7897856030198508
0.48174435759005313
0.6395215808589739
0.63200837975093
0.5643895697785355
0.2601049249027597
0.9362930246267058
1.0903136473416046
0.7108969913853904
0.9362930246267058
1.2368210689484596
0.9400496251807278
0.5606329692245136
0.8611610135462674
0.8611610135462674
0.2601049249027597
0.48550095814407507
0.7860290024658289
0.33523693598319815
0.3389935365372201
1.0114250357071444
0.7860290024658289
0.2658191526603095
1.3908416916633586
1.0865570467875827
0.8611610135462674
0.2601049249027597
0.7860290024658289
0.2601049249027597
0.6395215808589739
0.635764980304952
0.7108969913853904
0.33523693598319815
0.7860290024658289
0.7860290024658289
0.2601049249027597
0.11555513049943257
1.2387786961519875
0.7860290024658289
0.5606329692245136
0.18497291382232126
0.635764980304952
0.41036894706363664
0.41036894706363664
0.6395215808589739
0.7108969913853904
0.33523693598319815
0.48550095814407507
0.11359750329590472
1.017139263464694
1.020895864018716
1.5430633410277632
1.8435913853495172
1.9149667958759335
0.04417971997301604
1.163646685071549
0.4912151859016249
1.3927993188668863
0.7166112191429402
1.5430633410277632
0.9382506518302337
1.69332736318864
0.7917432302233787
1.5430633410277632
0.6414792080625018
1.5430633410277632
0.9420072523842556
1.6144387515541798
1.4716879305013466
1.8398347847954952
0.2658191526603095
0.4912151859016249
1.3890427183128644
0.2601049249027597
0.4160831748211864
1.2368210689484596
0.7108969913853904
0.6395215808589739
0.2601049249027597
0.33523693598319815
0.7879866296693567
1.3214239083404697
0.41036894706363664
0.7879866296693567
1.69332736318864
0.41036894706363664
0.4912151859016249
1.3890427183128644
0.10608430218786087
0.19068714157987104
1.163646685071549
0.8668752413038171
1.6181953521082018
0.7917432302233787
1.5430633410277632
1.017139263464694
1.6181953521082018
1.167403285625571
1.69332736318864
0.7128546185889183
1.5430633410277632
0.6414792080625018
1.5430633410277632
0.8668752413038171
1.6181953521082018
0.8631186407497952
1.6181953521082018
0.4160831748211864
1.467931329947325
0.337194563186726
1.3214239083404697
0.8668752413038171
1.6144387515541798
0.49497178645564677
1.464174729393303
0.5663471969820633
1.3176673077864478
0.9420072523842556
1.6144387515541798
0.7166112191429402
1.467931329947325
0.7917432302233787
1.6181953521082018
0.4912151859016249
1.3890427183128644
0.7917432302233787
1.6181953521082018
1.020895864018716
1.5393067404737413
0.6414792080625018
1.467931329947325
0.337194563186726
0.4912151859016249
1.3965559194209083
0.03846549221546626
0.9420072523842556
1.0885146739911107
1.6219519526622237
0.2658191526603095
1.2425352967060095
1.017139263464694
0.3389935365372201
0.5606329692245136
0.7108969913853904
0.18872951437634317
0.5606329692245136
0.7108969913853904
0.489257558698097
0.18497291382232126
0.2601049249027597
0.6395215808589739
0.48174435759005313
0.18872951437634317
0.6395215808589739
0.5606329692245136
0.41036894706363664
0.1098409027418828
0.33523693598319815
0.7108969913853904
0.3389935365372201
0.034708891661444335
0.33523693598319815
0.635764980304952
0.41036894706363664
0.2601049249027597
0.5643895697785355
0.5643895697785355
0.18121631326829932
0.034708891661444335
0.337194563186726
1.1654456584220432
0.04417971997301604
0.18872951437634317
0.41036894706363664
0.2601049249027597
0.48745858534760295
0.5701037975360852
1.3890427183128644
1.9224799969839774
0.1869305410258491
0.8668752413038171
1.6181953521082018
1.8435913853495172
31.901951391429417
0.33523693598319815
1.015181636261166
0.48550095814407507
0.2601049249027597
0.489257558698097
0.5606329692245136
0.1098409027418828
0.3389935365372201
0.48174435759005313
0.11359750329590472
0.5663471969820633
1.1616890578680212
0.4141255476176585
0.18497291382232126
0.33148033542917626
0.7146535919394124
0.2658191526603095
1.0133826629106721
1.1711598861795929
1.69332736318864
1.0885146739911107
1.7722159748231006
1.3927993188668863
0.5663471969820633
1.464174729393303
0.8668752413038171
1.69332736318864
0.4160831748211864
1.3139107072324259
0.7954998307774006
1.5430633410277632
1.0885146739911107
1.7684593742690786
0.4912151859016249
1.3927993188668863
0.5663471969820633
1.464174729393303
1.167403285625571
1.4716879305013466
0.7879866296693567
1.5430633410277632
0.337194563186726
1.3214239083404697
0.8668752413038171
1.5430633410277632
0.9382506518302337
1.6181953521082018
0.11555513049943257
1.2425352967060095
0.7166112191429402
1.5430633410277632
1.0133826629106721
1.69332736318864
0.6414792080625018
1.467931329947325
1.167403285625571
1.8435913853495172
0.8631186407497952
1.5430633410277632
0.2658191526603095
1.3176673077864478
0.7166112191429402
1.5430633410277632
0.9382506518302337
0.48174435759005313
0.6395215808589739
0.33523693598319815
0.2601049249027597
0.7146535919394124
0.5606329692245136
0.2601049249027597
0.48550095814407507
0.6395215808589739
0.41036894706363664
0.4912151859016249
1.6124811243506518
0.6395215808589739
0.1098409027418828
0.41036894706363664
0.6395215808589739
0.33523693598319815
0.1098409027418828
0.8611610135462674
0.635764980304952
0.4160831748211864
0.9420072523842556
0.11359750329590472
0.7128546185889183
1.020895864018716
1.69332736318864
0.4160831748211864
1.3176673077864478
1.163646685071549
1.69332736318864
0.5663471969820633
1.3927993188668863
0.34095116374074796
0.2658191526603095
1.3139107072324259
0.18121631326829932
1.31570968058292
1.0114250357071444
0.7897856030198508
0.9362930246267058
0.7897856030198508
0.4160831748211864
1.8378771575919672
1.2368210689484596
0.8611610135462674
0.5663471969820633
1.464174729393303
0.635764980304952
0.26386152545678165
0.1098409027418828
0.5663471969820633
0.635764980304952
0.11179852994541066
0.9325364240726839
0.2601049249027597
0.11359750329590472
0.7917432302233787
0.7166112191429402
1.6181953521082018
1.167403285625571
1.5430633410277632
1.3139107072324259
1.8435913853495172
0.04417971997301604
0.6377226075084799
1.3927993188668863
0.5663471969820633
1.3890427183128644
1.3927993188668863
1.5430633410277632
0.7954998307774006
0.9382506518302337
1.69332736318864
0.034708891661444335
0.3389935365372201
0.7108969913853904
0.2601049249027597
0.19068714157987104
0.4160831748211864
1.2425352967060095
1.8435913853495172
1.9149667958759335
0.7203678196969622
1.6144387515541798
0.11555513049943257
1.167403285625571
1.6144387515541798
0.48174435759005313
0.5663471969820633
1.464174729393303
0.33523693598319815
0.7917432302233787
1.6144387515541798
0.48174435759005313
0.4160831748211864
1.3890427183128644
0.26386152545678165
0.1098409027418828
0.8611610135462674
0.41036894706363664
0.9400496251807278
0.48174435759005313
1.0903136473416046
1.1616890578680212
0.8611610135462674
0.7108969913853904
0.9400496251807278
0.8611610135462674
0.5606329692245136
0.7897856030198508
1.1654456584220432
0.5606329692245136
0.5606329692245136
0.2658191526603095
1.2425352967060095
0.48550095814407507
0.2601049249027597
0.3389935365372201
0.7860290024658289
0.6414792080625018
1.467931329947325
0.11179852994541066
0.41036894706363664
0.7108969913853904
0.33523693598319815
0.11179852994541066
1.60872452379663
0.1869305410258491
0.635764980304952
0.18497291382232126
0.7108969913853904
0.489257558698097
0.19068714157987104
0.034708891661444335
0.04042311941899412
0.0366665188649722
0.18497291382232126
0.04042311941899412
0.33523693598319815
0.7860290024658289
0.1869305410258491
0.9362930246267058
0.7860290024658289
0.7146535919394124
0.33148033542917626
0.3389935365372201
0.8611610135462674
0.6395215808589739
0.5606329692245136
0.48174435759005313
0.8611610135462674
0.26386152545678165
0.33148033542917626
0.5681461703325573
0.63200837975093
0.3389935365372201
0.41036894706363664
0.7108969913853904
0.2658191526603095
0.635764980304952
0.33523693598319815
0.635764980304952
0.41036894706363664
0.1098409027418828
0.48550095814407507
0.7146535919394124
0.33523693598319815
0.18497291382232126
0.8649176141002892
0.8611610135462674
0.41036894706363664
0.63200837975093
0.7897856030198508
0.635764980304952
0.26386152545678165
0.63200837975093
1.0903136473416046
0.9362930246267058
0.41036894706363664
0.5606329692245136
0.489257558698097
0.7897856030198508
0.18121631326829932
0.5643895697785355
0.7860290024658289
0.41036894706363664
0.337194563186726
1.60872452379663
0.7146535919394124
0.48550095814407507
0.6395215808589739
0.34470776429476985
1.3139107072324259
0.33523693598319815
0.4160831748211864
1.5411057138242354
0.5606329692245136
0.2601049249027597
0.6395215808589739
0.7108969913853904
0.48174435759005313
0.489257558698097
0.7108969913853904
0.48745858534760295
1.4716879305013466
0.18872951437634317
0.5663471969820633
1.6876131354310904
0.7897856030198508
0.41036894706363664
0.63200837975093
1.015181636261166
0.7897856030198508
0.2658191526603095
0.6452358086165237
0.8631186407497952
1.6181953521082018
0.7166112191429402
1.5430633410277632
1.0133826629106721
1.4716879305013466
1.167403285625571
0.7897856030198508
0.7108969913853904
0.7897856030198508
0.41036894706363664
0.635764980304952
0.7108969913853904
0.26386152545678165
0.7166112191429402
1.4716879305013466
0.2601049249027597
0.7184101924934343
0.48174435759005313
0.489257558698097
1.0114250357071444
0.9362930246267058
0.6395215808589739
0.782272401911807
0.6395215808589739
0.18872951437634317
0.2563483243487378
0.5643895697785355
0.034708891661444335
0.5606329692245136
0.5606329692245136
1.1654456584220432
1.0114250357071444
0.7108969913853904
0.5663471969820633
1.2387786961519875
1.4716879305013466
0.7128546185889183
1.467931329947325
0.8668752413038171
1.6181953521082018
0.34095116374074796
1.2425352967060095
0.5663471969820633
1.3139107072324259
0.9457638529382775
1.6895707626346181
0.7166112191429402
1.467931329947325
0.5663471969820633
0.3389935365372201
0.33523693598319815
0.8649176141002892
0.782272401911807
0.03846549221546626
1.2368210689484596
0.9362930246267058
0.48550095814407507
0.5643895697785355
0.8611610135462674
0.8649176141002892
0.48174435759005313
0.7146535919394124
0.7108969913853904
0.5643895697785355
0.7954998307774006
1.5430633410277632
0.1098409027418828
0.41232657426716446
0.9420072523842556
1.3927993188668863
1.6181953521082018
1.2387786961519875
1.7722159748231006
0.4160831748211864
1.3139107072324259
1.167403285625571
1.5430633410277632
1.167403285625571
1.5430633410277632
1.163646685071549
1.8435913853495172
0.48174435759005313
0.7128546185889183
1.5430633410277632
1.69332736318864
0.7917432302233787
1.6181953521082018
0.2620625521062876
1.2425352967060095
0.5663471969820633
1.3927993188668863
0.7917432302233787
1.6181953521082018
0.19068714157987104
1.2405776695024815
1.015181636261166
0.8611610135462674
1.1579324573139993
1.015181636261166
0.7108969913853904
0.9400496251807278
0.9362930246267058
0.635764980304952
0.7897856030198508
1.0076684351531224
0.489257558698097
0.41036894706363664
0.7897856030198508
0.5606329692245136
0.18497291382232126
0.48550095814407507
0.7108969913853904
0.7108969913853904
0.18872951437634317
0.41036894706363664
0.635764980304952
0.6395215808589739
0.1098409027418828
0.6395215808589739
0.8611610135462674
0.635764980304952
0.48550095814407507
1.015181636261166
0.782272401911807
0.41036894706363664
0.7184101924934343
0.782272401911807
0.3389935365372201
0.48174435759005313
0.9400496251807278
0.9362930246267058
0.489257558698097
0.41036894706363664
0.48550095814407507
0.3389935365372201
0.1098409027418828
0.48550095814407507
0.7146535919394124
0.33148033542917626
0.11359750329590472
0.7108969913853904
0.9362930246267058
0.3389935365372201
0.48550095814407507
0.8649176141002892
0.8611610135462674
0.41036894706363664
0.7860290024658289
0.8611610135462674
0.2601049249027597
0.4141255476176585
0.5606329692245136
0.2658191526603095
0.9420072523842556
1.0922712745451324
1.6181953521082018
0.41232657426716446
1.0114250357071444
0.7860290024658289
0.4141255476176585
1.0865570467875827
0.782272401911807
0.18872951437634317
0.2601049249027597
0.7146535919394124
0.7108969913853904
0.18497291382232126
0.7917432302233787
1.6144387515541798
0.1098409027418828
0.8611610135462674
0.635764980304952
0.48550095814407507
0.9400496251807278
0.9362930246267058
0.489257558698097
0.7108969913853904
1.0865570467875827
0.7860290024658289
0.5663471969820633
1.3890427183128644
0.33148033542917626
0.6395215808589739
0.2601049249027597
0.33523693598319815
1.015181636261166
0.8611610135462674
0.5663471969820633
1.464174729393303
0.48174435759005313
0.9400496251807278
0.7108969913853904
0.48550095814407507
0.635764980304952
0.2601049249027597
0.03846549221546626
0.2601049249027597
0.26386152545678165
0.1098409027418828
0.7954998307774006
1.5430633410277632
0.2658191526603095
0.5643895697785355
0.1098409027418828
1.0885146739911107
1.6219519526622237
1.464174729393303
1.017139263464694
1.5430633410277632
0.04042311941899412
1.167403285625571
1.3176673077864478
1.7647027737150567
0.6452358086165237
1.464174729393303
0.6452358086165237
1.6144387515541798
0.8668752413038171
1.69332736318864
0.9420072523842556
1.6181953521082018
0.337194563186726
1.2425352967060095
0.4160831748211864
1.3176673077864478
0.7166112191429402
0.635764980304952
0.41232657426716446
1.3927993188668863
0.7108969913853904
0.3389935365372201
0.9325364240726839
1.0903136473416046
0.635764980304952
0.7108969913853904
0.8611610135462674
0.5643895697785355
0.33523693598319815
0.8611610135462674
0.6395215808589739
0.7166112191429402
1.467931329947325
0.18497291382232126
0.6395215808589739
0.33148033542917626
0.11359750329590472
0.41036894706363664
0.5606329692245136
0.3389935365372201
0.1098409027418828
0.6395215808589739
0.63200837975093
0.41036894706363664
0.11359750329590472
0.18121631326829932
0.0366665188649722
0.03846549221546626
0.04042311941899412
0.11555513049943257
0.19444374213389296
0.11359750329590472
0.8649176141002892
0.18121631326829932
0.034708891661444335
0.26386152545678165
0.7146535919394124
0.2563483243487378
0.04042311941899412
0.3389935365372201
0.41036894706363664
0.18497291382232126
0.1098409027418828
0.7108969913853904
0.7897856030198508
0.3389935365372201
0.48174435759005313
1.0114250357071444
0.9400496251807278
0.34095116374074796
1.6162377249046738
0.7108969913853904
0.7879866296693567
1.3214239083404697
1.5430633410277632
1.8435913853495172
1.9149667958759335
1.847347985903539
1.7684593742690786
1.9187233964299555
1.8435913853495172
0.48745858534760295
1.3927993188668863
0.635764980304952
0.7166112191429402
1.6144387515541798
0.48550095814407507
0.7166112191429402
1.5430633410277632
1.3927993188668863
0.6414792080625018
1.5430633410277632
0.7879866296693567
1.5430633410277632
0.7166112191429402
1.5430633410277632
0.2658191526603095
0.8668752413038171
1.0922712745451324
1.7647027737150567
0.7954998307774006
1.5430633410277632
0.6377226075084799
1.3927993188668863
0.4160831748211864
1.3927993188668863
0.5625905964280414
1.4716879305013466
1.0133826629106721
1.6181953521082018
0.34095116374074796
0.6414792080625018
1.163646685071549
1.7722159748231006
0.48745858534760295
1.467931329947325
0.6414792080625018
0.7860290024658289
0.7897856030198508
0.1098409027418828
1.2405776695024815
